# FDQN-TE+ Comparison Metrics (vs Article) - Énergie en Joules
# Tables: 3 (Energy), 4 (Lifetime), 5 (PDR), 6 (Delay), 7-8 (Alive/Dead Nodes)

[SUMMARY]
Metric,Value,Unit
FND (First Node Death),2657,s
HND (Half Node Death),0,s
LND (90% Node Death),0,s
Total Rounds,70,rounds
Average PDR RL,99.5804,%
PDR RL pre-FND (stable phase),99.6573,%
Average PDR NS-3,68.1616,%
Average End-to-End Delay,12.1101,ms
Total Energy Consumed,54.1737,J

[TABLE_3_ENERGY_CONSUMPTION_J]
Round,EnergyConsumed_J
50,0.785002
100.000000,1.569562
150.000000,2.318644
200.000000,3.066112
250.000000,3.798705
300.000000,4.529820
350.000000,5.295606
400.000000,6.059347
450.000000,6.793014
500.000000,7.522929
550.000000,8.277734
600.000000,9.032150
650.000000,9.831567
700.000000,10.638272
750.000000,11.463845
800.000000,12.296054
850.000000,13.130262
900.000000,13.969706
950.000000,14.813011
1000.000000,15.635784
1050.000000,16.451959
1100.000000,17.252808
1150.000000,18.107425
1200.000000,18.961861
1250.000000,19.731184
1300.000000,20.491805
1350.000000,21.225649
1400.000000,21.956962
1450.000000,22.813861
1500.000000,23.647158
1550.000000,24.442414
1600.000000,25.240520
1650.000000,26.066577
1700.000000,26.882487
1750.000000,27.674830
1800.000000,28.426227
1850.000000,29.312106
1900.000000,30.151121
1950.000000,30.983766
2000.000000,31.801376
2050.000000,32.627122
2100.000000,33.416774
2150.000000,34.272612
2200.000000,35.102442
2250.000000,35.990608
2300.000000,36.833574
2350.000000,37.703671
2400.000000,38.528233
2450.000000,39.289862
2500.000000,40.068650
2550.000000,40.937099
2600.000000,41.769945
2650.000000,42.604817
2700.000000,43.384981
2750.000000,44.212163
2800.000000,45.004618
2850.000000,45.787173
2900.000000,46.537036
2950.000000,47.347423
3000.000000,48.142321
3050.000000,48.909033
3100.000000,49.587780
3150.000000,50.205768
3200.000000,50.804897
3250.000000,51.442063
3300.000000,52.088176
3350.000000,52.658878
3400.000000,53.217608
3450.000000,53.720716
3500.000000,54.173671

[TABLE_4_NETWORK_LIFETIME]
Round,AliveNodes,DeadNodes,Time_s
50.000000,50,0,50.000000
100.000000,50,0,100.000000
150.000000,50,0,150.000000
200.000000,50,0,200.000000
250.000000,50,0,250.000000
300.000000,50,0,300.000000
350.000000,50,0,350.000000
400.000000,50,0,400.000000
450.000000,50,0,450.000000
500.000000,50,0,500.000000
550.000000,50,0,550.000000
600.000000,50,0,600.000000
650.000000,50,0,650.000000
700.000000,50,0,700.000000
750.000000,50,0,750.000000
800.000000,50,0,800.000000
850.000000,50,0,850.000000
900.000000,50,0,900.000000
950.000000,50,0,950.000000
1000.000000,50,0,1000.000000
1050.000000,50,0,1050.000000
1100.000000,50,0,1100.000000
1150.000000,50,0,1150.000000
1200.000000,50,0,1200.000000
1250.000000,50,0,1250.000000
1300.000000,50,0,1300.000000
1350.000000,50,0,1350.000000
1400.000000,50,0,1400.000000
1450.000000,50,0,1450.000000
1500.000000,50,0,1500.000000
1550.000000,50,0,1550.000000
1600.000000,50,0,1600.000000
1650.000000,50,0,1650.000000
1700.000000,50,0,1700.000000
1750.000000,50,0,1750.000000
1800.000000,50,0,1800.000000
1850.000000,50,0,1850.000000
1900.000000,50,0,1900.000000
1950.000000,50,0,1950.000000
2000.000000,50,0,2000.000000
2050.000000,50,0,2050.000000
2100.000000,50,0,2100.000000
2150.000000,50,0,2150.000000
2200.000000,50,0,2200.000000
2250.000000,50,0,2250.000000
2300.000000,50,0,2300.000000
2350.000000,50,0,2350.000000
2400.000000,50,0,2400.000000
2450.000000,50,0,2450.000000
2500.000000,50,0,2500.000000
2550.000000,50,0,2550.000000
2600.000000,50,0,2600.000000
2650.000000,50,0,2650.000000
2700.000000,49,1,2700.000000
2750.000000,49,1,2750.000000
2800.000000,49,1,2800.000000
2850.000000,48,2,2850.000000
2900.000000,48,2,2900.000000
2950.000000,48,2,2950.000000
3000.000000,48,2,3000.000000
3050.000000,47,3,3050.000000
3100.000000,44,6,3100.000000
3150.000000,44,6,3150.000000
3200.000000,43,7,3200.000000
3250.000000,43,7,3250.000000
3300.000000,41,9,3300.000000
3350.000000,41,9,3350.000000
3400.000000,40,10,3400.000000
3450.000000,39,11,3450.000000
3500.000000,39,11,3500.000000

[TABLE_5_PDR_PERCENT]
Round,PDR_RL_pct,PDR_NS3_pct
50.000000,100.00,66.78
100.00,100.00,66.78
150.00,100.00,66.78
200.00,100.00,66.78
250.00,99.40,66.89
300.00,99.13,66.89
350.00,99.20,66.89
400.00,99.22,66.89
450.00,99.27,66.89
500.00,99.30,69.18
550.00,99.36,69.18
600.00,99.42,69.18
650.00,99.43,69.18
700.00,99.46,69.18
750.00,99.45,69.51
800.00,99.47,69.51
850.00,99.49,69.51
900.00,99.46,69.51
950.00,99.48,69.51
1000.00,99.51,69.32
1050.00,99.53,69.32
1100.00,99.55,69.32
1150.00,99.57,69.32
1200.00,99.59,69.32
1250.00,99.61,68.46
1300.00,99.55,68.46
1350.00,99.53,68.46
1400.00,99.49,68.46
1450.00,99.50,68.46
1500.00,99.52,67.91
1550.00,99.54,67.91
1600.00,99.55,67.91
1650.00,99.56,67.91
1700.00,99.58,67.91
1750.00,99.56,68.00
1800.00,99.52,68.00
1850.00,99.54,68.00
1900.00,99.55,68.00
1950.00,99.56,68.00
2000.00,99.57,67.93
2050.00,99.58,67.93
2100.00,99.59,67.93
2150.00,99.60,67.93
2200.00,99.59,67.93
2250.00,99.60,67.83
2300.00,99.60,67.83
2350.00,99.61,67.83
2400.00,99.62,67.83
2450.00,99.63,67.83
2500.00,99.64,67.92
2550.00,99.64,67.92
2600.00,99.65,67.92
2650.00,99.66,67.92
2700.00,99.66,67.92
2750.00,99.67,67.92
2800.00,99.67,67.92
2850.00,99.67,67.92
2900.00,99.68,67.92
2950.00,99.68,67.92
3000.00,99.69,68.06
3050.00,99.69,68.06
3100.00,99.68,68.06
3150.00,99.69,68.06
3200.00,99.69,68.06
3250.00,99.69,68.28
3300.00,99.68,68.28
3350.00,99.69,68.28
3400.00,99.69,68.28
3450.00,99.69,68.28
3500.00,99.69,68.22

[TABLE_6_END_TO_END_DELAY_ms]
Round,Delay_ms
500.00,9.66
1000.00,9.66
1500.00,11.60
2000.00,11.60
2500.00,11.40
3000.00,11.40
3500.00,10.82
4000.00,10.82
4500.00,11.21
5000.00,11.21
5500.00,12.85
6000.00,12.85
6500.00,13.24
7000.00,13.24
7500.00,13.14
8000.00,13.14
8500.00,13.24
9000.00,13.24
9500.00,11.60
10000.00,11.60
10500.00,12.95
11000.00,12.76
11500.00,13.05
12000.00,13.05
12500.00,10.63
13000.00,10.63
13500.00,11.11
14000.00,11.11
14500.00,12.95
15000.00,12.95
15500.00,11.69
16000.00,11.69
16500.00,11.79
17000.00,11.60
17500.00,12.47
18000.00,12.27
18500.00,11.79
19000.00,11.60
19500.00,12.85
20000.00,12.66
20500.00,12.95
21000.00,12.56
21500.00,13.53
22000.00,13.34
22500.00,11.98
23000.00,11.98
23500.00,13.53
24000.00,13.14
24500.00,12.37
25000.00,12.18
25500.00,13.34
26000.00,12.95
26500.00,12.66
27000.00,12.52
27500.00,13.21
28000.00,13.02
28500.00,12.58
29000.00,12.58
29500.00,11.78
30000.00,11.78
30500.00,12.65
31000.00,12.19
31500.00,10.98
32000.00,10.68
32500.00,11.35
33000.00,11.08
33500.00,12.14
34000.00,11.96
34500.00,10.66
35000.00,10.90

[TABLE_7_ALIVE_NODES]
Round,AliveNodes
50.00,50
100.00,50
150.00,50
200.00,50
250.00,50
300.00,50
350.00,50
400.00,50
450.00,50
500.00,50
550.00,50
600.00,50
650.00,50
700.00,50
750.00,50
800.00,50
850.00,50
900.00,50
950.00,50
1000.00,50
1050.00,50
1100.00,50
1150.00,50
1200.00,50
1250.00,50
1300.00,50
1350.00,50
1400.00,50
1450.00,50
1500.00,50
1550.00,50
1600.00,50
1650.00,50
1700.00,50
1750.00,50
1800.00,50
1850.00,50
1900.00,50
1950.00,50
2000.00,50
2050.00,50
2100.00,50
2150.00,50
2200.00,50
2250.00,50
2300.00,50
2350.00,50
2400.00,50
2450.00,50
2500.00,50
2550.00,50
2600.00,50
2650.00,50
2700.00,49
2750.00,49
2800.00,49
2850.00,48
2900.00,48
2950.00,48
3000.00,48
3050.00,47
3100.00,44
3150.00,44
3200.00,43
3250.00,43
3300.00,41
3350.00,41
3400.00,40
3450.00,39
3500.00,39

[TABLE_8_DEAD_NODES]
Round,DeadNodes
50.00,0
100.00,0
150.00,0
200.00,0
250.00,0
300.00,0
350.00,0
400.00,0
450.00,0
500.00,0
550.00,0
600.00,0
650.00,0
700.00,0
750.00,0
800.00,0
850.00,0
900.00,0
950.00,0
1000.00,0
1050.00,0
1100.00,0
1150.00,0
1200.00,0
1250.00,0
1300.00,0
1350.00,0
1400.00,0
1450.00,0
1500.00,0
1550.00,0
1600.00,0
1650.00,0
1700.00,0
1750.00,0
1800.00,0
1850.00,0
1900.00,0
1950.00,0
2000.00,0
2050.00,0
2100.00,0
2150.00,0
2200.00,0
2250.00,0
2300.00,0
2350.00,0
2400.00,0
2450.00,0
2500.00,0
2550.00,0
2600.00,0
2650.00,0
2700.00,1
2750.00,1
2800.00,1
2850.00,2
2900.00,2
2950.00,2
3000.00,2
3050.00,3
3100.00,6
3150.00,6
3200.00,7
3250.00,7
3300.00,9
3350.00,9
3400.00,10
3450.00,11
3500.00,11

[TABLE_RL_METRICS]
Round,RL_Steps,Fed_Rounds
50.00,500,10
100.00,1000,20
150.00,1500,30
200.00,2000,40
250.00,2500,50
300.00,3000,60
350.00,3500,70
400.00,4000,80
450.00,4500,90
500.00,5000,100
550.00,5500,110
600.00,6000,120
650.00,6500,130
700.00,7000,140
750.00,7500,150
800.00,8000,160
850.00,8500,170
900.00,9000,180
950.00,9500,190
1000.00,10000,200
1050.00,10500,210
1100.00,11000,220
1150.00,11500,230
1200.00,12000,240
1250.00,12500,250
1300.00,13000,260
1350.00,13500,270
1400.00,14000,280
1450.00,14500,290
1500.00,15000,300
1550.00,15500,310
1600.00,16000,320
1650.00,16500,330
1700.00,17000,340
1750.00,17500,350
1800.00,18000,360
1850.00,18500,370
1900.00,19000,380
1950.00,19500,390
2000.00,20000,400
2050.00,20500,410
2100.00,21000,420
2150.00,21500,430
2200.00,22000,440
2250.00,22500,450
2300.00,23000,460
2350.00,23500,470
2400.00,24000,480
2450.00,24500,490
2500.00,25000,500
2550.00,25500,510
2600.00,26000,520
2650.00,26500,530
2700.00,26992,539
2750.00,27482,549
2800.00,27972,559
2850.00,28455,569
2900.00,28935,578
2950.00,29415,588
3000.00,29895,597
3050.00,30371,607
3100.00,30829,616
3150.00,31269,625
3200.00,31708,634
3250.00,32138,642
3300.00,32559,651
3350.00,32959,659
3400.00,33357,667
3450.00,33741,674
3500.00,34121,682
