# FDQN-TE+ Comparison Metrics (vs Article) - Énergie en Joules
# Tables: 3 (Energy), 4 (Lifetime), 5 (PDR), 6 (Delay), 7-8 (Alive/Dead Nodes)

[SUMMARY]
Metric,Value,Unit
FND (First Node Death),407,s
HND (Half Node Death),2337,s
LND (90% Node Death),0,s
Total Rounds,70,rounds
Average PDR RL,97.6459,%
PDR RL pre-FND (stable phase),99.4697,%
Average PDR NS-3,100,%
Average End-to-End Delay,13.7182,ms
Total Energy Consumed,230.136,J

[TABLE_3_ENERGY_CONSUMPTION_J]
Round,EnergyConsumed_J
50,5.521763
100.000000,11.043399
150.000000,16.812284
200.000000,22.582042
250.000000,27.754338
300.000000,32.925994
350.000000,37.959603
400.000000,43.002332
450.000000,47.759965
500.000000,52.506747
550.000000,57.530406
600.000000,62.524471
650.000000,68.056334
700.000000,73.397334
750.000000,78.885556
800.000000,84.237482
850.000000,88.790434
900.000000,93.345326
950.000000,98.607478
1000.000000,103.519839
1050.000000,107.931873
1100.000000,112.340034
1150.000000,117.081831
1200.000000,121.684532
1250.000000,125.835191
1300.000000,129.816297
1350.000000,134.356281
1400.000000,138.794817
1450.000000,143.362795
1500.000000,147.620674
1550.000000,151.866086
1600.000000,156.008275
1650.000000,159.549746
1700.000000,163.047941
1750.000000,167.466598
1800.000000,171.521888
1850.000000,175.327567
1900.000000,178.894807
1950.000000,182.198485
2000.000000,185.295548
2050.000000,188.516008
2100.000000,191.521363
2150.000000,194.620124
2200.000000,197.311979
2250.000000,200.342978
2300.000000,202.960037
2350.000000,205.351095
2400.000000,207.211028
2450.000000,209.546211
2500.000000,211.522120
2550.000000,213.336659
2600.000000,214.929498
2650.000000,216.327346
2700.000000,217.601811
2750.000000,218.930773
2800.000000,220.005993
2850.000000,220.921898
2900.000000,221.777122
2950.000000,222.675509
3000.000000,223.479297
3050.000000,224.490527
3100.000000,225.428263
3150.000000,226.313329
3200.000000,227.013630
3250.000000,227.684970
3300.000000,228.285307
3350.000000,228.820153
3400.000000,229.269311
3450.000000,229.715782
3500.000000,230.135581

[TABLE_4_NETWORK_LIFETIME]
Round,AliveNodes,DeadNodes,Time_s
50.000000,200,0,50.000000
100.000000,200,0,100.000000
150.000000,200,0,150.000000
200.000000,200,0,200.000000
250.000000,200,0,250.000000
300.000000,200,0,300.000000
350.000000,200,0,350.000000
400.000000,200,0,400.000000
450.000000,199,1,450.000000
500.000000,199,1,500.000000
550.000000,199,1,550.000000
600.000000,198,2,600.000000
650.000000,198,2,650.000000
700.000000,196,4,700.000000
750.000000,195,5,750.000000
800.000000,195,5,800.000000
850.000000,195,5,850.000000
900.000000,195,5,900.000000
950.000000,191,9,950.000000
1000.000000,191,9,1000.000000
1050.000000,190,10,1050.000000
1100.000000,190,10,1100.000000
1150.000000,189,11,1150.000000
1200.000000,189,11,1200.000000
1250.000000,186,14,1250.000000
1300.000000,184,16,1300.000000
1350.000000,183,17,1350.000000
1400.000000,180,20,1400.000000
1450.000000,179,21,1450.000000
1500.000000,176,24,1500.000000
1550.000000,176,24,1550.000000
1600.000000,172,28,1600.000000
1650.000000,168,32,1650.000000
1700.000000,166,34,1700.000000
1750.000000,164,36,1750.000000
1800.000000,157,43,1800.000000
1850.000000,154,46,1850.000000
1900.000000,150,50,1900.000000
1950.000000,146,54,1950.000000
2000.000000,142,58,2000.000000
2050.000000,135,65,2050.000000
2100.000000,132,68,2100.000000
2150.000000,125,75,2150.000000
2200.000000,121,79,2200.000000
2250.000000,113,87,2250.000000
2300.000000,107,93,2300.000000
2350.000000,99,101,2350.000000
2400.000000,96,104,2400.000000
2450.000000,90,110,2450.000000
2500.000000,86,114,2500.000000
2550.000000,80,120,2550.000000
2600.000000,74,126,2600.000000
2650.000000,68,132,2650.000000
2700.000000,66,134,2700.000000
2750.000000,63,137,2750.000000
2800.000000,59,141,2800.000000
2850.000000,58,142,2850.000000
2900.000000,56,144,2900.000000
2950.000000,54,146,2950.000000
3000.000000,52,148,3000.000000
3050.000000,49,151,3050.000000
3100.000000,49,151,3100.000000
3150.000000,48,152,3150.000000
3200.000000,42,158,3200.000000
3250.000000,41,159,3250.000000
3300.000000,40,160,3300.000000
3350.000000,36,164,3350.000000
3400.000000,35,165,3400.000000
3450.000000,34,166,3450.000000
3500.000000,34,166,3500.000000

[TABLE_5_PDR_PERCENT]
Round,PDR_RL_pct,PDR_NS3_pct
50.000000,99.60,100.00
100.00,99.67,100.00
150.00,99.78,100.00
200.00,99.84,100.00
250.00,99.59,100.00
300.00,99.44,100.00
350.00,99.45,100.00
400.00,99.46,100.00
450.00,99.40,100.00
500.00,99.32,100.00
550.00,99.37,100.00
600.00,99.37,100.00
650.00,99.41,100.00
700.00,99.33,100.00
750.00,99.30,100.00
800.00,99.19,100.00
850.00,99.24,100.00
900.00,99.27,100.00
950.00,99.18,100.00
1000.00,98.88,100.00
1050.00,98.91,100.00
1100.00,98.94,100.00
1150.00,98.98,100.00
1200.00,98.87,100.00
1250.00,98.56,100.00
1300.00,98.22,100.00
1350.00,98.21,100.00
1400.00,98.21,100.00
1450.00,98.24,100.00
1500.00,98.20,100.00
1550.00,98.24,100.00
1600.00,98.20,100.00
1650.00,98.16,100.00
1700.00,97.85,100.00
1750.00,97.83,100.00
1800.00,97.58,100.00
1850.00,97.50,100.00
1900.00,97.28,100.00
1950.00,97.32,100.00
2000.00,97.28,100.00
2050.00,97.17,100.00
2100.00,96.92,100.00
2150.00,96.90,100.00
2200.00,96.83,100.00
2250.00,96.73,100.00
2300.00,96.53,100.00
2350.00,96.37,100.00
2400.00,96.13,100.00
2450.00,96.10,100.00
2500.00,96.00,100.00
2550.00,95.96,100.00
2600.00,95.91,100.00
2650.00,95.91,100.00
2700.00,95.89,100.00
2750.00,95.90,100.00
2800.00,95.91,100.00
2850.00,95.93,100.00
2900.00,95.90,100.00
2950.00,95.92,100.00
3000.00,95.92,100.00
3050.00,95.94,100.00
3100.00,95.96,100.00
3150.00,95.98,100.00
3200.00,95.97,100.00
3250.00,95.99,100.00
3300.00,95.99,100.00
3350.00,95.98,100.00
3400.00,95.96,100.00
3450.00,95.97,100.00
3500.00,95.98,100.00

[TABLE_6_END_TO_END_DELAY_ms]
Round,Delay_ms
500.00,16.14
1000.00,16.14
1500.00,16.50
2000.00,16.50
2500.00,17.61
3000.00,17.61
3500.00,15.92
4000.00,15.92
4500.00,16.00
5000.00,16.00
5500.00,16.85
6000.00,16.67
6500.00,16.18
7000.00,15.95
7500.00,15.86
8000.00,15.86
8500.00,15.61
9000.00,15.61
9500.00,15.66
10000.00,15.66
10500.00,15.77
11000.00,15.77
11500.00,15.39
12000.00,15.39
12500.00,15.98
13000.00,15.84
13500.00,15.84
14000.00,15.78
14500.00,16.17
15000.00,15.95
15500.00,15.81
16000.00,15.56
16500.00,14.98
17000.00,14.93
17500.00,15.09
18000.00,14.59
18500.00,14.18
19000.00,13.69
19500.00,15.06
20000.00,14.67
20500.00,13.21
21000.00,13.07
21500.00,14.19
22000.00,14.18
22500.00,12.91
23000.00,12.69
23500.00,12.93
24000.00,12.78
24500.00,11.76
25000.00,11.35
25500.00,11.42
26000.00,11.10
26500.00,11.37
27000.00,10.91
27500.00,11.12
28000.00,11.06
28500.00,10.75
29000.00,10.61
29500.00,10.74
30000.00,10.69
30500.00,9.76
31000.00,9.76
31500.00,10.27
32000.00,9.89
32500.00,9.19
33000.00,9.06
33500.00,8.32
34000.00,8.28
34500.00,8.10
35000.00,8.10

[TABLE_7_ALIVE_NODES]
Round,AliveNodes
50.00,200
100.00,200
150.00,200
200.00,200
250.00,200
300.00,200
350.00,200
400.00,200
450.00,199
500.00,199
550.00,199
600.00,198
650.00,198
700.00,196
750.00,195
800.00,195
850.00,195
900.00,195
950.00,191
1000.00,191
1050.00,190
1100.00,190
1150.00,189
1200.00,189
1250.00,186
1300.00,184
1350.00,183
1400.00,180
1450.00,179
1500.00,176
1550.00,176
1600.00,172
1650.00,168
1700.00,166
1750.00,164
1800.00,157
1850.00,154
1900.00,150
1950.00,146
2000.00,142
2050.00,135
2100.00,132
2150.00,125
2200.00,121
2250.00,113
2300.00,107
2350.00,99
2400.00,96
2450.00,90
2500.00,86
2550.00,80
2600.00,74
2650.00,68
2700.00,66
2750.00,63
2800.00,59
2850.00,58
2900.00,56
2950.00,54
3000.00,52
3050.00,49
3100.00,49
3150.00,48
3200.00,42
3250.00,41
3300.00,40
3350.00,36
3400.00,35
3450.00,34
3500.00,34

[TABLE_8_DEAD_NODES]
Round,DeadNodes
50.00,0
100.00,0
150.00,0
200.00,0
250.00,0
300.00,0
350.00,0
400.00,0
450.00,1
500.00,1
550.00,1
600.00,2
650.00,2
700.00,4
750.00,5
800.00,5
850.00,5
900.00,5
950.00,9
1000.00,9
1050.00,10
1100.00,10
1150.00,11
1200.00,11
1250.00,14
1300.00,16
1350.00,17
1400.00,20
1450.00,21
1500.00,24
1550.00,24
1600.00,28
1650.00,32
1700.00,34
1750.00,36
1800.00,43
1850.00,46
1900.00,50
1950.00,54
2000.00,58
2050.00,65
2100.00,68
2150.00,75
2200.00,79
2250.00,87
2300.00,93
2350.00,101
2400.00,104
2450.00,110
2500.00,114
2550.00,120
2600.00,126
2650.00,132
2700.00,134
2750.00,137
2800.00,141
2850.00,142
2900.00,144
2950.00,146
3000.00,148
3050.00,151
3100.00,151
3150.00,152
3200.00,158
3250.00,159
3300.00,160
3350.00,164
3400.00,165
3450.00,166
3500.00,166

[TABLE_RL_METRICS]
Round,RL_Steps,Fed_Rounds
50.00,2000,0
100.00,4000,0
150.00,6000,0
200.00,8000,0
250.00,10000,0
300.00,12000,0
350.00,14000,0
400.00,16000,0
450.00,17992,0
500.00,19982,0
550.00,21972,0
600.00,23960,0
650.00,25940,0
700.00,27910,0
750.00,29868,0
800.00,31818,0
850.00,33768,0
900.00,35718,0
950.00,37655,0
1000.00,39565,0
1050.00,41470,0
1100.00,43370,0
1150.00,45270,0
1200.00,47160,0
1250.00,49027,0
1300.00,50881,0
1350.00,52714,0
1400.00,54529,0
1450.00,56329,0
1500.00,58102,0
1550.00,59862,0
1600.00,61602,0
1650.00,63306,0
1700.00,64977,0
1750.00,66632,0
1800.00,68251,0
1850.00,69799,0
1900.00,71323,0
1950.00,72803,0
2000.00,74244,0
2050.00,75627,0
2100.00,76961,0
2150.00,78250,0
2200.00,79487,0
2250.00,80653,0
2300.00,81757,0
2350.00,82788,0
2400.00,83740,0
2450.00,84643,0
2500.00,85482,0
2550.00,86266,0
2600.00,87005,0
2650.00,87663,0
2700.00,88300,0
2750.00,88905,0
2800.00,89461,0
2850.00,89989,0
2900.00,90502,0
2950.00,90989,0
3000.00,91451,0
3050.00,91896,0
3100.00,92326,0
3150.00,92754,0
3200.00,93144,0
3250.00,93502,0
3300.00,93845,0
3350.00,94160,0
3400.00,94453,0
3450.00,94739,0
3500.00,95019,0
