# FDQN-TE+ Comparison Metrics (vs Article) - Énergie en Joules
# Tables: 3 (Energy), 4 (Lifetime), 5 (PDR), 6 (Delay), 7-8 (Alive/Dead Nodes)

[SUMMARY]
Metric,Value,Unit
FND (First Node Death),1352,s
HND (Half Node Death),3462,s
LND (90% Node Death),0,s
Total Rounds,70,rounds
Average PDR RL,99.9422,%
PDR RL pre-FND (stable phase),100,%
Average PDR NS-3,99.9205,%
Average End-to-End Delay,7.89814,ms
Total Energy Consumed,49.501,J

[TABLE_3_ENERGY_CONSUMPTION_J]
Round,EnergyConsumed_J
50,0.830077
100.000000,1.660153
150.000000,2.445797
200.000000,3.231440
250.000000,4.067771
300.000000,4.904102
350.000000,5.818850
400.000000,6.733598
450.000000,7.576189
500.000000,8.418780
550.000000,9.141625
600.000000,9.864470
650.000000,10.623561
700.000000,11.382651
750.000000,12.320055
800.000000,13.257460
850.000000,14.106914
900.000000,14.956368
950.000000,15.849806
1000.000000,16.743244
1050.000000,17.567757
1100.000000,18.392271
1150.000000,19.301401
1200.000000,20.210530
1250.000000,20.997877
1300.000000,21.785224
1350.000000,22.632563
1400.000000,23.429925
1450.000000,24.295873
1500.000000,25.161822
1550.000000,26.052951
1600.000000,26.944079
1650.000000,27.847676
1700.000000,28.723443
1750.000000,29.501749
1800.000000,30.280054
1850.000000,31.075659
1900.000000,31.871263
1950.000000,32.707131
2000.000000,33.537410
2050.000000,34.285714
2100.000000,35.034019
2150.000000,35.818568
2200.000000,36.568351
2250.000000,37.264109
2300.000000,37.959867
2350.000000,38.706035
2400.000000,39.434018
2450.000000,40.144513
2500.000000,40.774528
2550.000000,41.388752
2600.000000,41.999186
2650.000000,42.608595
2700.000000,43.145906
2750.000000,43.639994
2800.000000,44.120169
2850.000000,44.608032
2900.000000,45.078040
2950.000000,45.545884
3000.000000,46.002981
3050.000000,46.388868
3100.000000,46.772471
3150.000000,47.156074
3200.000000,47.539676
3250.000000,47.906498
3300.000000,48.246087
3350.000000,48.569456
3400.000000,48.884600
3450.000000,49.199745
3500.000000,49.500996

[TABLE_4_NETWORK_LIFETIME]
Round,AliveNodes,DeadNodes,Time_s
50.000000,50,0,50.000000
100.000000,50,0,100.000000
150.000000,50,0,150.000000
200.000000,50,0,200.000000
250.000000,50,0,250.000000
300.000000,50,0,300.000000
350.000000,50,0,350.000000
400.000000,50,0,400.000000
450.000000,50,0,450.000000
500.000000,50,0,500.000000
550.000000,50,0,550.000000
600.000000,50,0,600.000000
650.000000,50,0,650.000000
700.000000,50,0,700.000000
750.000000,50,0,750.000000
800.000000,50,0,800.000000
850.000000,50,0,850.000000
900.000000,50,0,900.000000
950.000000,50,0,950.000000
1000.000000,50,0,1000.000000
1050.000000,50,0,1050.000000
1100.000000,50,0,1100.000000
1150.000000,50,0,1150.000000
1200.000000,50,0,1200.000000
1250.000000,50,0,1250.000000
1300.000000,50,0,1300.000000
1350.000000,50,0,1350.000000
1400.000000,49,1,1400.000000
1450.000000,49,1,1450.000000
1500.000000,49,1,1500.000000
1550.000000,49,1,1550.000000
1600.000000,49,1,1600.000000
1650.000000,48,2,1650.000000
1700.000000,48,2,1700.000000
1750.000000,48,2,1750.000000
1800.000000,48,2,1800.000000
1850.000000,48,2,1850.000000
1900.000000,48,2,1900.000000
1950.000000,47,3,1950.000000
2000.000000,47,3,2000.000000
2050.000000,47,3,2050.000000
2100.000000,47,3,2100.000000
2150.000000,47,3,2150.000000
2200.000000,46,4,2200.000000
2250.000000,46,4,2250.000000
2300.000000,46,4,2300.000000
2350.000000,46,4,2350.000000
2400.000000,44,6,2400.000000
2450.000000,41,9,2450.000000
2500.000000,41,9,2500.000000
2550.000000,40,10,2550.000000
2600.000000,40,10,2600.000000
2650.000000,38,12,2650.000000
2700.000000,35,15,2700.000000
2750.000000,34,16,2750.000000
2800.000000,34,16,2800.000000
2850.000000,33,17,2850.000000
2900.000000,32,18,2900.000000
2950.000000,32,18,2950.000000
3000.000000,30,20,3000.000000
3050.000000,29,21,3050.000000
3100.000000,29,21,3100.000000
3150.000000,29,21,3150.000000
3200.000000,29,21,3200.000000
3250.000000,27,23,3250.000000
3300.000000,27,23,3300.000000
3350.000000,26,24,3350.000000
3400.000000,26,24,3400.000000
3450.000000,26,24,3450.000000
3500.000000,25,25,3500.000000

[TABLE_5_PDR_PERCENT]
Round,PDR_RL_pct,PDR_NS3_pct
50.000000,100.00,99.76
100.00,100.00,99.76
150.00,100.00,99.76
200.00,100.00,99.76
250.00,100.00,99.96
300.00,100.00,99.96
350.00,100.00,99.96
400.00,100.00,99.96
450.00,100.00,99.96
500.00,100.00,99.94
550.00,100.00,99.94
600.00,100.00,99.94
650.00,100.00,99.94
700.00,100.00,99.94
750.00,100.00,99.94
800.00,100.00,99.94
850.00,100.00,99.94
900.00,100.00,99.94
950.00,100.00,99.94
1000.00,100.00,99.96
1050.00,100.00,99.96
1100.00,100.00,99.96
1150.00,100.00,99.96
1200.00,100.00,99.96
1250.00,100.00,99.93
1300.00,100.00,99.93
1350.00,100.00,99.93
1400.00,99.99,99.93
1450.00,99.99,99.93
1500.00,99.99,99.93
1550.00,99.99,99.93
1600.00,99.99,99.93
1650.00,99.98,99.93
1700.00,99.92,99.93
1750.00,99.92,99.93
1800.00,99.92,99.93
1850.00,99.92,99.93
1900.00,99.93,99.93
1950.00,99.92,99.93
2000.00,99.92,99.92
2050.00,99.93,99.92
2100.00,99.93,99.92
2150.00,99.93,99.92
2200.00,99.93,99.92
2250.00,99.93,99.91
2300.00,99.93,99.91
2350.00,99.93,99.91
2400.00,99.92,99.91
2450.00,99.91,99.91
2500.00,99.91,99.92
2550.00,99.91,99.92
2600.00,99.91,99.92
2650.00,99.91,99.92
2700.00,99.86,99.92
2750.00,99.86,99.92
2800.00,99.86,99.92
2850.00,99.86,99.92
2900.00,99.86,99.92
2950.00,99.86,99.92
3000.00,99.86,99.92
3050.00,99.85,99.92
3100.00,99.86,99.92
3150.00,99.86,99.92
3200.00,99.86,99.92
3250.00,99.85,99.92
3300.00,99.85,99.92
3350.00,99.85,99.92
3400.00,99.85,99.92
3450.00,99.86,99.92
3500.00,99.85,99.91

[TABLE_6_END_TO_END_DELAY_ms]
Round,Delay_ms
500.00,9.08
1000.00,9.08
1500.00,9.76
2000.00,9.76
2500.00,8.60
3000.00,8.60
3500.00,8.99
4000.00,8.99
4500.00,8.60
5000.00,8.60
5500.00,9.28
6000.00,9.28
6500.00,8.50
7000.00,8.50
7500.00,7.92
8000.00,7.92
8500.00,9.28
9000.00,9.28
9500.00,9.18
10000.00,9.18
10500.00,9.18
11000.00,9.18
11500.00,8.60
12000.00,8.60
12500.00,9.57
13000.00,9.57
13500.00,9.57
14000.00,9.57
14500.00,8.58
15000.00,8.58
15500.00,8.38
16000.00,8.38
16500.00,7.95
17000.00,7.95
17500.00,8.46
18000.00,8.46
18500.00,8.66
19000.00,8.66
19500.00,8.22
20000.00,8.22
20500.00,8.33
21000.00,8.33
21500.00,8.84
22000.00,8.82
22500.00,8.61
23000.00,8.61
23500.00,8.51
24000.00,8.35
24500.00,7.42
25000.00,7.42
25500.00,7.73
26000.00,7.73
26500.00,7.63
27000.00,7.32
27500.00,6.68
28000.00,6.68
28500.00,6.00
29000.00,5.89
29500.00,5.74
30000.00,5.48
30500.00,5.17
31000.00,5.17
31500.00,5.17
32000.00,5.17
32500.00,5.01
33000.00,5.01
33500.00,4.83
34000.00,4.83
34500.00,4.83
35000.00,4.83

[TABLE_7_ALIVE_NODES]
Round,AliveNodes
50.00,50
100.00,50
150.00,50
200.00,50
250.00,50
300.00,50
350.00,50
400.00,50
450.00,50
500.00,50
550.00,50
600.00,50
650.00,50
700.00,50
750.00,50
800.00,50
850.00,50
900.00,50
950.00,50
1000.00,50
1050.00,50
1100.00,50
1150.00,50
1200.00,50
1250.00,50
1300.00,50
1350.00,50
1400.00,49
1450.00,49
1500.00,49
1550.00,49
1600.00,49
1650.00,48
1700.00,48
1750.00,48
1800.00,48
1850.00,48
1900.00,48
1950.00,47
2000.00,47
2050.00,47
2100.00,47
2150.00,47
2200.00,46
2250.00,46
2300.00,46
2350.00,46
2400.00,44
2450.00,41
2500.00,41
2550.00,40
2600.00,40
2650.00,38
2700.00,35
2750.00,34
2800.00,34
2850.00,33
2900.00,32
2950.00,32
3000.00,30
3050.00,29
3100.00,29
3150.00,29
3200.00,29
3250.00,27
3300.00,27
3350.00,26
3400.00,26
3450.00,26
3500.00,25

[TABLE_8_DEAD_NODES]
Round,DeadNodes
50.00,0
100.00,0
150.00,0
200.00,0
250.00,0
300.00,0
350.00,0
400.00,0
450.00,0
500.00,0
550.00,0
600.00,0
650.00,0
700.00,0
750.00,0
800.00,0
850.00,0
900.00,0
950.00,0
1000.00,0
1050.00,0
1100.00,0
1150.00,0
1200.00,0
1250.00,0
1300.00,0
1350.00,0
1400.00,1
1450.00,1
1500.00,1
1550.00,1
1600.00,1
1650.00,2
1700.00,2
1750.00,2
1800.00,2
1850.00,2
1900.00,2
1950.00,3
2000.00,3
2050.00,3
2100.00,3
2150.00,3
2200.00,4
2250.00,4
2300.00,4
2350.00,4
2400.00,6
2450.00,9
2500.00,9
2550.00,10
2600.00,10
2650.00,12
2700.00,15
2750.00,16
2800.00,16
2850.00,17
2900.00,18
2950.00,18
3000.00,20
3050.00,21
3100.00,21
3150.00,21
3200.00,21
3250.00,23
3300.00,23
3350.00,24
3400.00,24
3450.00,24
3500.00,25

[TABLE_RL_METRICS]
Round,RL_Steps,Fed_Rounds
50.00,500,0
100.00,1000,0
150.00,1500,0
200.00,2000,0
250.00,2500,0
300.00,3000,0
350.00,3500,0
400.00,4000,0
450.00,4500,0
500.00,5000,0
550.00,5500,0
600.00,6000,0
650.00,6500,0
700.00,7000,0
750.00,7500,0
800.00,8000,0
850.00,8500,0
900.00,9000,0
950.00,9500,0
1000.00,10000,0
1050.00,10500,0
1100.00,11000,0
1150.00,11500,0
1200.00,12000,0
1250.00,12500,0
1300.00,13000,0
1350.00,13500,0
1400.00,13991,0
1450.00,14481,0
1500.00,14971,0
1550.00,15461,0
1600.00,15951,0
1650.00,16439,0
1700.00,16919,0
1750.00,17399,0
1800.00,17879,0
1850.00,18359,0
1900.00,18839,0
1950.00,19311,0
2000.00,19781,0
2050.00,20251,0
2100.00,20721,0
2150.00,21191,0
2200.00,21652,0
2250.00,22112,0
2300.00,22572,0
2350.00,23032,0
2400.00,23487,0
2450.00,23919,0
2500.00,24329,0
2550.00,24735,0
2600.00,25135,0
2650.00,25522,0
2700.00,25883,0
2750.00,26228,0
2800.00,26568,0
2850.00,26900,0
2900.00,27226,0
2950.00,27546,0
3000.00,27863,0
3050.00,28154,0
3100.00,28444,0
3150.00,28734,0
3200.00,29024,0
3250.00,29307,0
3300.00,29577,0
3350.00,29841,0
3400.00,30101,0
3450.00,30361,0
3500.00,30614,0
