# FDQN-TE+ Comparison Metrics (vs Article) - Énergie en Joules
# Tables: 3 (Energy), 4 (Lifetime), 5 (PDR), 6 (Delay), 7-8 (Alive/Dead Nodes)

[SUMMARY]
Metric,Value,Unit
FND (First Node Death),2187,s
HND (Half Node Death),2887,s
LND (90% Node Death),3422,s
Total Rounds,68,rounds
Average PDR RL,98.9448,%
PDR RL pre-FND (stable phase),99.2831,%
Average PDR NS-3,93.946,%
Average End-to-End Delay,16.4302,ms
Total Energy Consumed,239.096,J

[TABLE_3_ENERGY_CONSUMPTION_J]
Round,EnergyConsumed_J
50,4.081171
100.000000,8.153442
150.000000,12.252931
200.000000,16.344347
250.000000,20.443205
300.000000,24.539077
350.000000,28.783714
400.000000,33.030551
450.000000,37.411860
500.000000,41.765249
550.000000,46.115121
600.000000,50.460305
650.000000,55.000657
700.000000,59.531232
750.000000,64.188290
800.000000,68.821276
850.000000,73.163172
900.000000,77.504704
950.000000,81.884461
1000.000000,86.248511
1050.000000,90.478439
1100.000000,94.743995
1150.000000,99.040477
1200.000000,103.349063
1250.000000,107.473982
1300.000000,111.599656
1350.000000,115.662856
1400.000000,119.755946
1450.000000,124.146449
1500.000000,128.539110
1550.000000,132.824873
1600.000000,137.122753
1650.000000,141.475371
1700.000000,145.824551
1750.000000,149.764539
1800.000000,153.715983
1850.000000,157.788579
1900.000000,161.860010
1950.000000,165.865431
2000.000000,169.862198
2050.000000,173.803364
2100.000000,177.751903
2150.000000,181.840940
2200.000000,185.894042
2250.000000,189.887415
2300.000000,193.842977
2350.000000,197.731265
2400.000000,201.579835
2450.000000,205.329194
2500.000000,208.922258
2550.000000,212.375505
2600.000000,215.615791
2650.000000,218.939447
2700.000000,221.853547
2750.000000,224.816070
2800.000000,227.174548
2850.000000,229.466341
2900.000000,231.385636
2950.000000,232.953338
3000.000000,234.138634
3050.000000,235.123550
3100.000000,235.930836
3150.000000,236.741341
3200.000000,237.324640
3250.000000,238.020454
3300.000000,238.464437
3350.000000,238.727108
3400.000000,238.969519

[TABLE_4_NETWORK_LIFETIME]
Round,AliveNodes,DeadNodes,Time_s
50.000000,200,0,50.000000
100.000000,200,0,100.000000
150.000000,200,0,150.000000
200.000000,200,0,200.000000
250.000000,200,0,250.000000
300.000000,200,0,300.000000
350.000000,200,0,350.000000
400.000000,200,0,400.000000
450.000000,200,0,450.000000
500.000000,200,0,500.000000
550.000000,200,0,550.000000
600.000000,200,0,600.000000
650.000000,200,0,650.000000
700.000000,200,0,700.000000
750.000000,200,0,750.000000
800.000000,200,0,800.000000
850.000000,200,0,850.000000
900.000000,200,0,900.000000
950.000000,200,0,950.000000
1000.000000,200,0,1000.000000
1050.000000,200,0,1050.000000
1100.000000,200,0,1100.000000
1150.000000,200,0,1150.000000
1200.000000,200,0,1200.000000
1250.000000,200,0,1250.000000
1300.000000,200,0,1300.000000
1350.000000,200,0,1350.000000
1400.000000,200,0,1400.000000
1450.000000,200,0,1450.000000
1500.000000,200,0,1500.000000
1550.000000,200,0,1550.000000
1600.000000,200,0,1600.000000
1650.000000,200,0,1650.000000
1700.000000,200,0,1700.000000
1750.000000,200,0,1750.000000
1800.000000,200,0,1800.000000
1850.000000,200,0,1850.000000
1900.000000,200,0,1900.000000
1950.000000,200,0,1950.000000
2000.000000,200,0,2000.000000
2050.000000,200,0,2050.000000
2100.000000,200,0,2100.000000
2150.000000,200,0,2150.000000
2200.000000,199,1,2200.000000
2250.000000,198,2,2250.000000
2300.000000,196,4,2300.000000
2350.000000,195,5,2350.000000
2400.000000,189,11,2400.000000
2450.000000,184,16,2450.000000
2500.000000,177,23,2500.000000
2550.000000,174,26,2550.000000
2600.000000,164,36,2600.000000
2650.000000,162,38,2650.000000
2700.000000,150,50,2700.000000
2750.000000,144,56,2750.000000
2800.000000,123,77,2800.000000
2850.000000,115,85,2850.000000
2900.000000,98,102,2900.000000
2950.000000,85,115,2950.000000
3000.000000,67,133,3000.000000
3050.000000,59,141,3050.000000
3100.000000,52,148,3100.000000
3150.000000,47,153,3150.000000
3200.000000,42,158,3200.000000
3250.000000,37,163,3250.000000
3300.000000,28,172,3300.000000
3350.000000,26,174,3350.000000
3400.000000,24,176,3400.000000

[TABLE_5_PDR_PERCENT]
Round,PDR_RL_pct,PDR_NS3_pct
50.000000,100.00,92.42
100.00,100.00,92.42
150.00,99.83,92.42
200.00,99.72,92.42
250.00,99.77,94.03
300.00,99.78,94.03
350.00,99.81,94.03
400.00,99.83,94.03
450.00,99.77,94.03
500.00,99.70,93.65
550.00,99.54,93.65
600.00,99.45,93.65
650.00,99.28,93.65
700.00,99.17,93.65
750.00,99.17,93.81
800.00,99.17,93.81
850.00,99.16,93.81
900.00,99.16,93.81
950.00,99.19,93.81
1000.00,99.22,93.75
1050.00,99.19,93.75
1100.00,99.18,93.75
1150.00,99.17,93.75
1200.00,99.18,93.75
1250.00,99.19,94.32
1300.00,99.20,94.32
1350.00,99.21,94.32
1400.00,99.23,94.32
1450.00,99.26,94.32
1500.00,99.28,94.61
1550.00,99.29,94.61
1600.00,99.31,94.61
1650.00,99.32,94.61
1700.00,99.32,94.61
1750.00,99.32,94.81
1800.00,99.31,94.81
1850.00,99.32,94.81
1900.00,99.33,94.81
1950.00,99.31,94.81
2000.00,99.28,94.43
2050.00,99.29,94.43
2100.00,99.30,94.43
2150.00,99.29,94.43
2200.00,99.25,94.43
2250.00,99.26,94.08
2300.00,99.26,94.08
2350.00,99.28,94.08
2400.00,99.29,94.08
2450.00,99.27,94.08
2500.00,99.22,93.79
2550.00,99.22,93.79
2600.00,99.04,93.79
2650.00,99.03,93.79
2700.00,98.71,93.79
2750.00,98.69,93.75
2800.00,98.30,93.75
2850.00,98.24,93.75
2900.00,97.88,93.75
2950.00,97.78,93.75
3000.00,97.40,93.69
3050.00,97.31,93.69
3100.00,97.09,93.69
3150.00,97.00,93.69
3200.00,96.86,93.69
3250.00,96.82,93.77
3300.00,96.75,93.77
3350.00,96.75,93.77
3400.00,96.74,93.77

[TABLE_6_END_TO_END_DELAY_ms]
Round,Delay_ms
500.00,15.66
1000.00,15.66
1500.00,16.53
2000.00,16.53
2500.00,16.72
3000.00,16.72
3500.00,17.40
4000.00,17.40
4500.00,18.17
5000.00,18.17
5500.00,18.87
6000.00,18.87
6500.00,18.12
7000.00,18.12
7500.00,18.99
8000.00,18.99
8500.00,18.46
9000.00,18.46
9500.00,17.47
10000.00,17.47
10500.00,18.02
11000.00,18.02
11500.00,17.08
12000.00,17.08
12500.00,17.20
13000.00,17.20
13500.00,16.67
14000.00,16.67
14500.00,19.13
15000.00,19.13
15500.00,18.46
16000.00,18.46
16500.00,17.08
17000.00,17.08
17500.00,16.43
18000.00,16.43
18500.00,16.50
19000.00,16.50
19500.00,16.96
20000.00,16.96
20500.00,16.19
21000.00,16.19
21500.00,17.18
22000.00,16.56
22500.00,16.40
23000.00,16.34
23500.00,16.30
24000.00,16.23
24500.00,16.86
25000.00,16.13
25500.00,16.41
26000.00,14.97
26500.00,16.11
27000.00,14.46
27500.00,15.00
28000.00,13.32
28500.00,14.58
29000.00,13.02
29500.00,14.27
30000.00,11.83
30500.00,15.31
31000.00,13.94
31500.00,13.06
32000.00,12.89
32500.00,15.54
33000.00,11.39
33500.00,14.68
34000.00,12.28

[TABLE_7_ALIVE_NODES]
Round,AliveNodes
50.00,200
100.00,200
150.00,200
200.00,200
250.00,200
300.00,200
350.00,200
400.00,200
450.00,200
500.00,200
550.00,200
600.00,200
650.00,200
700.00,200
750.00,200
800.00,200
850.00,200
900.00,200
950.00,200
1000.00,200
1050.00,200
1100.00,200
1150.00,200
1200.00,200
1250.00,200
1300.00,200
1350.00,200
1400.00,200
1450.00,200
1500.00,200
1550.00,200
1600.00,200
1650.00,200
1700.00,200
1750.00,200
1800.00,200
1850.00,200
1900.00,200
1950.00,200
2000.00,200
2050.00,200
2100.00,200
2150.00,200
2200.00,199
2250.00,198
2300.00,196
2350.00,195
2400.00,189
2450.00,184
2500.00,177
2550.00,174
2600.00,164
2650.00,162
2700.00,150
2750.00,144
2800.00,123
2850.00,115
2900.00,98
2950.00,85
3000.00,67
3050.00,59
3100.00,52
3150.00,47
3200.00,42
3250.00,37
3300.00,28
3350.00,26
3400.00,24

[TABLE_8_DEAD_NODES]
Round,DeadNodes
50.00,0
100.00,0
150.00,0
200.00,0
250.00,0
300.00,0
350.00,0
400.00,0
450.00,0
500.00,0
550.00,0
600.00,0
650.00,0
700.00,0
750.00,0
800.00,0
850.00,0
900.00,0
950.00,0
1000.00,0
1050.00,0
1100.00,0
1150.00,0
1200.00,0
1250.00,0
1300.00,0
1350.00,0
1400.00,0
1450.00,0
1500.00,0
1550.00,0
1600.00,0
1650.00,0
1700.00,0
1750.00,0
1800.00,0
1850.00,0
1900.00,0
1950.00,0
2000.00,0
2050.00,0
2100.00,0
2150.00,0
2200.00,1
2250.00,2
2300.00,4
2350.00,5
2400.00,11
2450.00,16
2500.00,23
2550.00,26
2600.00,36
2650.00,38
2700.00,50
2750.00,56
2800.00,77
2850.00,85
2900.00,102
2950.00,115
3000.00,133
3050.00,141
3100.00,148
3150.00,153
3200.00,158
3250.00,163
3300.00,172
3350.00,174
3400.00,176

[TABLE_RL_METRICS]
Round,RL_Steps,Fed_Rounds
50.00,2000,0
100.00,4000,0
150.00,6000,0
200.00,8000,0
250.00,10000,0
300.00,12000,0
350.00,14000,0
400.00,16000,0
450.00,18000,0
500.00,20000,0
550.00,22000,0
600.00,24000,0
650.00,26000,0
700.00,28000,0
750.00,30000,0
800.00,32000,0
850.00,34000,0
900.00,36000,0
950.00,38000,0
1000.00,40000,0
1050.00,42000,0
1100.00,44000,0
1150.00,46000,0
1200.00,48000,0
1250.00,50000,0
1300.00,52000,0
1350.00,54000,0
1400.00,56000,0
1450.00,58000,0
1500.00,60000,0
1550.00,62000,0
1600.00,64000,0
1650.00,66000,0
1700.00,68000,0
1750.00,70000,0
1800.00,72000,0
1850.00,74000,0
1900.00,76000,0
1950.00,78000,0
2000.00,80000,0
2050.00,82000,0
2100.00,84000,0
2150.00,86000,0
2200.00,87998,0
2250.00,89981,0
2300.00,91951,0
2350.00,93910,0
2400.00,95844,0
2450.00,97718,0
2500.00,99531,0
2550.00,101287,0
2600.00,102983,0
2650.00,104607,0
2700.00,106161,0
2750.00,107646,0
2800.00,108957,0
2850.00,110154,0
2900.00,111218,0
2950.00,112113,0
3000.00,112847,0
3050.00,113442,0
3100.00,113969,0
3150.00,114429,0
3200.00,114831,0
3250.00,115178,0
3300.00,115424,0
3350.00,115611,0
3400.00,115778,0
