# FDQN-TE+ Comparison Metrics (vs Article) - Énergie en Joules
# Tables: 3 (Energy), 4 (Lifetime), 5 (PDR), 6 (Delay), 7-8 (Alive/Dead Nodes)

[SUMMARY]
Metric,Value,Unit
FND (First Node Death),2697,s
HND (Half Node Death),0,s
LND (90% Node Death),0,s
Total Rounds,70,rounds
Average PDR RL,99.4041,%
PDR RL pre-FND (stable phase),99.4647,%
Average PDR NS-3,99.9861,%
Average End-to-End Delay,13.8372,ms
Total Energy Consumed,114.84,J

[TABLE_3_ENERGY_CONSUMPTION_J]
Round,EnergyConsumed_J
50,1.736342
100.000000,3.484808
150.000000,5.184462
200.000000,6.881441
250.000000,8.456296
300.000000,10.038904
350.000000,11.679094
400.000000,13.311528
450.000000,14.931080
500.000000,16.551532
550.000000,18.205624
600.000000,19.824097
650.000000,21.524415
700.000000,23.199926
750.000000,24.844764
800.000000,26.497415
850.000000,28.194763
900.000000,29.834244
950.000000,31.538470
1000.000000,33.225612
1050.000000,35.028726
1100.000000,36.779302
1150.000000,38.576283
1200.000000,40.327031
1250.000000,42.097395
1300.000000,43.779152
1350.000000,45.539745
1400.000000,47.202853
1450.000000,49.049742
1500.000000,50.785295
1550.000000,52.543647
1600.000000,54.203192
1650.000000,55.920174
1700.000000,57.561197
1750.000000,59.358255
1800.000000,61.030835
1850.000000,62.728265
1900.000000,64.321467
1950.000000,66.057205
2000.000000,67.738376
2050.000000,69.478263
2100.000000,71.159381
2150.000000,72.934700
2200.000000,74.646976
2250.000000,76.485372
2300.000000,78.218490
2350.000000,79.931433
2400.000000,81.533137
2450.000000,83.248884
2500.000000,84.912532
2550.000000,86.622128
2600.000000,88.380467
2650.000000,90.161157
2700.000000,91.870909
2750.000000,93.554377
2800.000000,95.152627
2850.000000,96.776496
2900.000000,98.317881
2950.000000,100.033581
3000.000000,101.680969
3050.000000,103.107085
3100.000000,104.596913
3150.000000,106.056159
3200.000000,107.572061
3250.000000,108.987054
3300.000000,110.478041
3350.000000,111.788674
3400.000000,112.955366
3450.000000,113.964565
3500.000000,114.840313

[TABLE_4_NETWORK_LIFETIME]
Round,AliveNodes,DeadNodes,Time_s
50.000000,100,0,50.000000
100.000000,100,0,100.000000
150.000000,100,0,150.000000
200.000000,100,0,200.000000
250.000000,100,0,250.000000
300.000000,100,0,300.000000
350.000000,100,0,350.000000
400.000000,100,0,400.000000
450.000000,100,0,450.000000
500.000000,100,0,500.000000
550.000000,100,0,550.000000
600.000000,100,0,600.000000
650.000000,100,0,650.000000
700.000000,100,0,700.000000
750.000000,100,0,750.000000
800.000000,100,0,800.000000
850.000000,100,0,850.000000
900.000000,100,0,900.000000
950.000000,100,0,950.000000
1000.000000,100,0,1000.000000
1050.000000,100,0,1050.000000
1100.000000,100,0,1100.000000
1150.000000,100,0,1150.000000
1200.000000,100,0,1200.000000
1250.000000,100,0,1250.000000
1300.000000,100,0,1300.000000
1350.000000,100,0,1350.000000
1400.000000,100,0,1400.000000
1450.000000,100,0,1450.000000
1500.000000,100,0,1500.000000
1550.000000,100,0,1550.000000
1600.000000,100,0,1600.000000
1650.000000,100,0,1650.000000
1700.000000,100,0,1700.000000
1750.000000,100,0,1750.000000
1800.000000,100,0,1800.000000
1850.000000,100,0,1850.000000
1900.000000,100,0,1900.000000
1950.000000,100,0,1950.000000
2000.000000,100,0,2000.000000
2050.000000,100,0,2050.000000
2100.000000,100,0,2100.000000
2150.000000,100,0,2150.000000
2200.000000,100,0,2200.000000
2250.000000,100,0,2250.000000
2300.000000,100,0,2300.000000
2350.000000,100,0,2350.000000
2400.000000,100,0,2400.000000
2450.000000,100,0,2450.000000
2500.000000,100,0,2500.000000
2550.000000,100,0,2550.000000
2600.000000,100,0,2600.000000
2650.000000,100,0,2650.000000
2700.000000,99,1,2700.000000
2750.000000,98,2,2750.000000
2800.000000,98,2,2800.000000
2850.000000,98,2,2850.000000
2900.000000,98,2,2900.000000
2950.000000,98,2,2950.000000
3000.000000,92,8,3000.000000
3050.000000,91,9,3050.000000
3100.000000,90,10,3100.000000
3150.000000,88,12,3150.000000
3200.000000,87,13,3200.000000
3250.000000,87,13,3250.000000
3300.000000,83,17,3300.000000
3350.000000,79,21,3350.000000
3400.000000,68,32,3400.000000
3450.000000,62,38,3450.000000
3500.000000,52,48,3500.000000

[TABLE_5_PDR_PERCENT]
Round,PDR_RL_pct,PDR_NS3_pct
50.000000,100.00,100.00
100.00,100.00,100.00
150.00,99.50,100.00
200.00,99.35,100.00
250.00,99.48,100.00
300.00,99.57,100.00
350.00,99.60,100.00
400.00,99.62,100.00
450.00,99.60,100.00
500.00,99.54,100.00
550.00,99.38,100.00
600.00,99.25,100.00
650.00,99.28,100.00
700.00,99.29,100.00
750.00,99.29,99.99
800.00,99.27,99.99
850.00,99.24,99.99
900.00,99.28,99.99
950.00,99.32,99.99
1000.00,99.33,99.99
1050.00,99.36,99.99
1100.00,99.35,99.99
1150.00,99.37,99.99
1200.00,99.35,99.99
1250.00,99.37,99.99
1300.00,99.40,99.99
1350.00,99.38,99.99
1400.00,99.38,99.99
1450.00,99.37,99.99
1500.00,99.39,100.00
1550.00,99.38,100.00
1600.00,99.38,100.00
1650.00,99.38,100.00
1700.00,99.38,100.00
1750.00,99.37,99.99
1800.00,99.35,99.99
1850.00,99.36,99.99
1900.00,99.36,99.99
1950.00,99.35,99.99
2000.00,99.37,99.99
2050.00,99.37,99.99
2100.00,99.38,99.99
2150.00,99.39,99.99
2200.00,99.41,99.99
2250.00,99.42,99.99
2300.00,99.43,99.99
2350.00,99.44,99.99
2400.00,99.45,99.99
2450.00,99.45,99.99
2500.00,99.44,99.99
2550.00,99.45,99.99
2600.00,99.44,99.99
2650.00,99.45,99.99
2700.00,99.46,99.99
2750.00,99.47,99.99
2800.00,99.47,99.99
2850.00,99.46,99.99
2900.00,99.45,99.99
2950.00,99.45,99.99
3000.00,99.38,99.95
3050.00,99.39,99.95
3100.00,99.40,99.95
3150.00,99.40,99.95
3200.00,99.41,99.95
3250.00,99.42,99.93
3300.00,99.40,99.93
3350.00,99.40,99.93
3400.00,99.12,99.93
3450.00,99.12,99.93
3500.00,98.97,99.88

[TABLE_6_END_TO_END_DELAY_ms]
Round,Delay_ms
500.00,11.89
1000.00,11.89
1500.00,13.05
2000.00,13.05
2500.00,13.58
3000.00,13.58
3500.00,13.63
4000.00,13.63
4500.00,13.24
5000.00,13.24
5500.00,14.21
6000.00,14.11
6500.00,14.59
7000.00,14.50
7500.00,13.72
8000.00,13.72
8500.00,13.77
9000.00,13.67
9500.00,13.77
10000.00,13.77
10500.00,13.67
11000.00,13.58
11500.00,15.85
12000.00,15.66
12500.00,13.96
13000.00,13.67
13500.00,13.82
14000.00,13.53
14500.00,14.93
15000.00,14.64
15500.00,13.77
16000.00,13.58
16500.00,14.69
17000.00,14.30
17500.00,15.08
18000.00,14.88
18500.00,13.92
19000.00,13.82
19500.00,13.96
20000.00,13.67
20500.00,13.43
21000.00,13.43
21500.00,14.35
22000.00,14.16
22500.00,14.11
23000.00,13.92
23500.00,14.35
24000.00,14.06
24500.00,13.72
25000.00,13.72
25500.00,13.53
26000.00,13.63
26500.00,14.83
27000.00,14.64
27500.00,14.89
28000.00,14.59
28500.00,13.41
29000.00,13.51
29500.00,14.59
30000.00,13.24
30500.00,13.65
31000.00,13.74
31500.00,14.06
32000.00,14.16
32500.00,13.61
33000.00,13.04
33500.00,13.95
34000.00,11.65
34500.00,13.79
35000.00,11.24

[TABLE_7_ALIVE_NODES]
Round,AliveNodes
50.00,100
100.00,100
150.00,100
200.00,100
250.00,100
300.00,100
350.00,100
400.00,100
450.00,100
500.00,100
550.00,100
600.00,100
650.00,100
700.00,100
750.00,100
800.00,100
850.00,100
900.00,100
950.00,100
1000.00,100
1050.00,100
1100.00,100
1150.00,100
1200.00,100
1250.00,100
1300.00,100
1350.00,100
1400.00,100
1450.00,100
1500.00,100
1550.00,100
1600.00,100
1650.00,100
1700.00,100
1750.00,100
1800.00,100
1850.00,100
1900.00,100
1950.00,100
2000.00,100
2050.00,100
2100.00,100
2150.00,100
2200.00,100
2250.00,100
2300.00,100
2350.00,100
2400.00,100
2450.00,100
2500.00,100
2550.00,100
2600.00,100
2650.00,100
2700.00,99
2750.00,98
2800.00,98
2850.00,98
2900.00,98
2950.00,98
3000.00,92
3050.00,91
3100.00,90
3150.00,88
3200.00,87
3250.00,87
3300.00,83
3350.00,79
3400.00,68
3450.00,62
3500.00,52

[TABLE_8_DEAD_NODES]
Round,DeadNodes
50.00,0
100.00,0
150.00,0
200.00,0
250.00,0
300.00,0
350.00,0
400.00,0
450.00,0
500.00,0
550.00,0
600.00,0
650.00,0
700.00,0
750.00,0
800.00,0
850.00,0
900.00,0
950.00,0
1000.00,0
1050.00,0
1100.00,0
1150.00,0
1200.00,0
1250.00,0
1300.00,0
1350.00,0
1400.00,0
1450.00,0
1500.00,0
1550.00,0
1600.00,0
1650.00,0
1700.00,0
1750.00,0
1800.00,0
1850.00,0
1900.00,0
1950.00,0
2000.00,0
2050.00,0
2100.00,0
2150.00,0
2200.00,0
2250.00,0
2300.00,0
2350.00,0
2400.00,0
2450.00,0
2500.00,0
2550.00,0
2600.00,0
2650.00,0
2700.00,1
2750.00,2
2800.00,2
2850.00,2
2900.00,2
2950.00,2
3000.00,8
3050.00,9
3100.00,10
3150.00,12
3200.00,13
3250.00,13
3300.00,17
3350.00,21
3400.00,32
3450.00,38
3500.00,48

[TABLE_RL_METRICS]
Round,RL_Steps,Fed_Rounds
50.00,1000,20
100.00,2000,40
150.00,3000,60
200.00,4000,80
250.00,5000,100
300.00,6000,120
350.00,7000,140
400.00,8000,160
450.00,9000,180
500.00,10000,200
550.00,11000,220
600.00,12000,240
650.00,13000,260
700.00,14000,280
750.00,15000,300
800.00,16000,320
850.00,17000,340
900.00,18000,360
950.00,19000,380
1000.00,20000,400
1050.00,21000,420
1100.00,22000,440
1150.00,23000,460
1200.00,24000,480
1250.00,25000,500
1300.00,26000,520
1350.00,27000,540
1400.00,28000,560
1450.00,29000,580
1500.00,30000,600
1550.00,31000,620
1600.00,32000,640
1650.00,33000,660
1700.00,34000,680
1750.00,35000,700
1800.00,36000,720
1850.00,37000,740
1900.00,38000,760
1950.00,39000,780
2000.00,40000,800
2050.00,41000,820
2100.00,42000,840
2150.00,43000,860
2200.00,44000,880
2250.00,45000,900
2300.00,46000,920
2350.00,47000,940
2400.00,48000,960
2450.00,49000,980
2500.00,50000,1000
2550.00,51000,1020
2600.00,52000,1040
2650.00,53000,1060
2700.00,54000,1080
2750.00,54982,1099
2800.00,55962,1119
2850.00,56942,1138
2900.00,57922,1158
2950.00,58902,1178
3000.00,59867,1197
3050.00,60782,1215
3100.00,61689,1233
3150.00,62582,1251
3200.00,63461,1269
3250.00,64331,1286
3300.00,65194,1303
3350.00,66008,1320
3400.00,66750,1335
3450.00,67403,1348
3500.00,67977,1359
