# FDQN-TE+ Comparison Metrics (vs Article) - Énergie en Joules
# Tables: 3 (Energy), 4 (Lifetime), 5 (PDR), 6 (Delay), 7-8 (Alive/Dead Nodes)

[SUMMARY]
Metric,Value,Unit
FND (First Node Death),1437,s
HND (Half Node Death),2762,s
LND (90% Node Death),0,s
Total Rounds,70,rounds
Average PDR RL,99.9372,%
PDR RL pre-FND (stable phase),100,%
Average PDR NS-3,100,%
Average End-to-End Delay,8.43548,ms
Total Energy Consumed,53.5199,J

[TABLE_3_ENERGY_CONSUMPTION_J]
Round,EnergyConsumed_J
50,0.984976
100.000000,1.969952
150.000000,2.970487
200.000000,3.971022
250.000000,4.878620
300.000000,5.786218
350.000000,6.899896
400.000000,8.013573
450.000000,9.066723
500.000000,10.119874
550.000000,11.111323
600.000000,12.102771
650.000000,13.187353
700.000000,14.271935
750.000000,15.253458
800.000000,16.234981
850.000000,17.217232
900.000000,18.199483
950.000000,19.137470
1000.000000,20.075458
1050.000000,21.081198
1100.000000,22.086939
1150.000000,23.011439
1200.000000,23.935939
1250.000000,24.805921
1300.000000,25.675904
1350.000000,26.641970
1400.000000,27.608035
1450.000000,28.530665
1500.000000,29.418905
1550.000000,30.415822
1600.000000,31.412739
1650.000000,32.313393
1700.000000,33.214048
1750.000000,34.087418
1800.000000,34.960788
1850.000000,35.935950
1900.000000,36.911112
1950.000000,37.912089
2000.000000,38.867695
2050.000000,39.769533
2100.000000,40.650235
2150.000000,41.446687
2200.000000,42.179281
2250.000000,42.843113
2300.000000,43.506946
2350.000000,44.207652
2400.000000,44.859649
2450.000000,45.617263
2500.000000,46.352443
2550.000000,46.979508
2600.000000,47.552103
2650.000000,48.150050
2700.000000,48.657601
2750.000000,49.109471
2800.000000,49.498867
2850.000000,49.872571
2900.000000,50.222739
2950.000000,50.571587
3000.000000,50.920435
3050.000000,51.269283
3100.000000,51.600865
3150.000000,51.899650
3200.000000,52.187523
3250.000000,52.442863
3300.000000,52.673171
3350.000000,52.903434
3400.000000,53.133696
3450.000000,53.332426
3500.000000,53.519872

[TABLE_4_NETWORK_LIFETIME]
Round,AliveNodes,DeadNodes,Time_s
50.000000,50,0,50.000000
100.000000,50,0,100.000000
150.000000,50,0,150.000000
200.000000,50,0,200.000000
250.000000,50,0,250.000000
300.000000,50,0,300.000000
350.000000,50,0,350.000000
400.000000,50,0,400.000000
450.000000,50,0,450.000000
500.000000,50,0,500.000000
550.000000,50,0,550.000000
600.000000,50,0,600.000000
650.000000,50,0,650.000000
700.000000,50,0,700.000000
750.000000,50,0,750.000000
800.000000,50,0,800.000000
850.000000,50,0,850.000000
900.000000,50,0,900.000000
950.000000,50,0,950.000000
1000.000000,50,0,1000.000000
1050.000000,50,0,1050.000000
1100.000000,50,0,1100.000000
1150.000000,50,0,1150.000000
1200.000000,50,0,1200.000000
1250.000000,50,0,1250.000000
1300.000000,50,0,1300.000000
1350.000000,50,0,1350.000000
1400.000000,50,0,1400.000000
1450.000000,49,1,1450.000000
1500.000000,49,1,1500.000000
1550.000000,49,1,1550.000000
1600.000000,49,1,1600.000000
1650.000000,49,1,1650.000000
1700.000000,49,1,1700.000000
1750.000000,49,1,1750.000000
1800.000000,49,1,1800.000000
1850.000000,49,1,1850.000000
1900.000000,49,1,1900.000000
1950.000000,48,2,1950.000000
2000.000000,47,3,2000.000000
2050.000000,45,5,2050.000000
2100.000000,45,5,2100.000000
2150.000000,42,8,2150.000000
2200.000000,40,10,2200.000000
2250.000000,40,10,2250.000000
2300.000000,40,10,2300.000000
2350.000000,36,14,2350.000000
2400.000000,36,14,2400.000000
2450.000000,36,14,2450.000000
2500.000000,35,15,2500.000000
2550.000000,33,17,2550.000000
2600.000000,32,18,2600.000000
2650.000000,30,20,2650.000000
2700.000000,27,23,2700.000000
2750.000000,26,24,2750.000000
2800.000000,24,26,2800.000000
2850.000000,24,26,2850.000000
2900.000000,23,27,2900.000000
2950.000000,23,27,2950.000000
3000.000000,23,27,3000.000000
3050.000000,23,27,3050.000000
3100.000000,21,29,3100.000000
3150.000000,21,29,3150.000000
3200.000000,20,30,3200.000000
3250.000000,19,31,3250.000000
3300.000000,18,32,3300.000000
3350.000000,18,32,3350.000000
3400.000000,18,32,3400.000000
3450.000000,16,34,3450.000000
3500.000000,16,34,3500.000000

[TABLE_5_PDR_PERCENT]
Round,PDR_RL_pct,PDR_NS3_pct
50.000000,100.00,100.00
100.00,100.00,100.00
150.00,100.00,100.00
200.00,100.00,100.00
250.00,100.00,100.00
300.00,100.00,100.00
350.00,100.00,100.00
400.00,100.00,100.00
450.00,100.00,100.00
500.00,100.00,100.00
550.00,100.00,100.00
600.00,100.00,100.00
650.00,100.00,100.00
700.00,100.00,100.00
750.00,100.00,100.00
800.00,100.00,100.00
850.00,100.00,100.00
900.00,100.00,100.00
950.00,100.00,100.00
1000.00,100.00,100.00
1050.00,100.00,100.00
1100.00,100.00,100.00
1150.00,100.00,100.00
1200.00,100.00,100.00
1250.00,100.00,100.00
1300.00,100.00,100.00
1350.00,100.00,100.00
1400.00,100.00,100.00
1450.00,99.99,100.00
1500.00,99.99,100.00
1550.00,99.99,100.00
1600.00,99.99,100.00
1650.00,99.99,100.00
1700.00,99.99,100.00
1750.00,99.99,100.00
1800.00,99.99,100.00
1850.00,99.99,100.00
1900.00,99.99,100.00
1950.00,99.98,100.00
2000.00,99.93,100.00
2050.00,99.92,100.00
2100.00,99.92,100.00
2150.00,99.91,100.00
2200.00,99.88,100.00
2250.00,99.89,100.00
2300.00,99.89,100.00
2350.00,99.87,100.00
2400.00,99.87,100.00
2450.00,99.88,100.00
2500.00,99.87,100.00
2550.00,99.87,100.00
2600.00,99.87,100.00
2650.00,99.86,100.00
2700.00,99.85,100.00
2750.00,99.85,100.00
2800.00,99.84,100.00
2850.00,99.84,100.00
2900.00,99.84,100.00
2950.00,99.84,100.00
3000.00,99.84,100.00
3050.00,99.84,100.00
3100.00,99.84,100.00
3150.00,99.84,100.00
3200.00,99.84,100.00
3250.00,99.83,100.00
3300.00,99.83,100.00
3350.00,99.83,100.00
3400.00,99.83,100.00
3450.00,99.83,100.00
3500.00,99.83,100.00

[TABLE_6_END_TO_END_DELAY_ms]
Round,Delay_ms
500.00,9.57
1000.00,9.57
1500.00,10.24
2000.00,10.24
2500.00,9.57
3000.00,9.57
3500.00,9.37
4000.00,9.37
4500.00,9.57
5000.00,9.57
5500.00,10.15
6000.00,10.15
6500.00,9.66
7000.00,9.66
7500.00,9.66
8000.00,9.66
8500.00,10.05
9000.00,10.05
9500.00,9.95
10000.00,9.95
10500.00,9.08
11000.00,9.08
11500.00,10.44
12000.00,10.44
12500.00,10.63
13000.00,10.63
13500.00,10.44
14000.00,10.44
14500.00,9.66
15000.00,9.66
15500.00,9.37
16000.00,9.37
16500.00,9.96
17000.00,9.96
17500.00,10.26
18000.00,10.26
18500.00,9.37
19000.00,9.37
19500.00,9.36
20000.00,9.36
20500.00,9.23
21000.00,9.23
21500.00,8.74
22000.00,8.46
22500.00,8.94
23000.00,8.94
23500.00,8.05
24000.00,8.05
24500.00,7.25
25000.00,7.18
25500.00,7.61
26000.00,7.55
26500.00,6.60
27000.00,6.26
27500.00,6.13
28000.00,5.84
28500.00,5.84
29000.00,5.67
29500.00,5.67
30000.00,5.67
30500.00,5.67
31000.00,5.29
31500.00,5.29
32000.00,5.32
32500.00,5.09
33000.00,4.83
33500.00,4.83
34000.00,4.83
34500.00,4.83
35000.00,4.83

[TABLE_7_ALIVE_NODES]
Round,AliveNodes
50.00,50
100.00,50
150.00,50
200.00,50
250.00,50
300.00,50
350.00,50
400.00,50
450.00,50
500.00,50
550.00,50
600.00,50
650.00,50
700.00,50
750.00,50
800.00,50
850.00,50
900.00,50
950.00,50
1000.00,50
1050.00,50
1100.00,50
1150.00,50
1200.00,50
1250.00,50
1300.00,50
1350.00,50
1400.00,50
1450.00,49
1500.00,49
1550.00,49
1600.00,49
1650.00,49
1700.00,49
1750.00,49
1800.00,49
1850.00,49
1900.00,49
1950.00,48
2000.00,47
2050.00,45
2100.00,45
2150.00,42
2200.00,40
2250.00,40
2300.00,40
2350.00,36
2400.00,36
2450.00,36
2500.00,35
2550.00,33
2600.00,32
2650.00,30
2700.00,27
2750.00,26
2800.00,24
2850.00,24
2900.00,23
2950.00,23
3000.00,23
3050.00,23
3100.00,21
3150.00,21
3200.00,20
3250.00,19
3300.00,18
3350.00,18
3400.00,18
3450.00,16
3500.00,16

[TABLE_8_DEAD_NODES]
Round,DeadNodes
50.00,0
100.00,0
150.00,0
200.00,0
250.00,0
300.00,0
350.00,0
400.00,0
450.00,0
500.00,0
550.00,0
600.00,0
650.00,0
700.00,0
750.00,0
800.00,0
850.00,0
900.00,0
950.00,0
1000.00,0
1050.00,0
1100.00,0
1150.00,0
1200.00,0
1250.00,0
1300.00,0
1350.00,0
1400.00,0
1450.00,1
1500.00,1
1550.00,1
1600.00,1
1650.00,1
1700.00,1
1750.00,1
1800.00,1
1850.00,1
1900.00,1
1950.00,2
2000.00,3
2050.00,5
2100.00,5
2150.00,8
2200.00,10
2250.00,10
2300.00,10
2350.00,14
2400.00,14
2450.00,14
2500.00,15
2550.00,17
2600.00,18
2650.00,20
2700.00,23
2750.00,24
2800.00,26
2850.00,26
2900.00,27
2950.00,27
3000.00,27
3050.00,27
3100.00,29
3150.00,29
3200.00,30
3250.00,31
3300.00,32
3350.00,32
3400.00,32
3450.00,34
3500.00,34

[TABLE_RL_METRICS]
Round,RL_Steps,Fed_Rounds
50.00,500,0
100.00,1000,0
150.00,1500,0
200.00,2000,0
250.00,2500,0
300.00,3000,0
350.00,3500,0
400.00,4000,0
450.00,4500,0
500.00,5000,0
550.00,5500,0
600.00,6000,0
650.00,6500,0
700.00,7000,0
750.00,7500,0
800.00,8000,0
850.00,8500,0
900.00,9000,0
950.00,9500,0
1000.00,10000,0
1050.00,10500,0
1100.00,11000,0
1150.00,11500,0
1200.00,12000,0
1250.00,12500,0
1300.00,13000,0
1350.00,13500,0
1400.00,14000,0
1450.00,14498,0
1500.00,14988,0
1550.00,15478,0
1600.00,15968,0
1650.00,16458,0
1700.00,16948,0
1750.00,17438,0
1800.00,17928,0
1850.00,18418,0
1900.00,18908,0
1950.00,19398,0
2000.00,19877,0
2050.00,20333,0
2100.00,20783,0
2150.00,21226,0
2200.00,21644,0
2250.00,22044,0
2300.00,22444,0
2350.00,22819,0
2400.00,23179,0
2450.00,23539,0
2500.00,23892,0
2550.00,24236,0
2600.00,24562,0
2650.00,24876,0
2700.00,25162,0
2750.00,25429,0
2800.00,25676,0
2850.00,25916,0
2900.00,26147,0
2950.00,26377,0
3000.00,26607,0
3050.00,26837,0
3100.00,27061,0
3150.00,27271,0
3200.00,27476,0
3250.00,27667,0
3300.00,27848,0
3350.00,28028,0
3400.00,28208,0
3450.00,28375,0
3500.00,28535,0
