# FDQN-TE+ Comparison Metrics (vs Article) - Énergie en Joules
# Tables: 3 (Energy), 4 (Lifetime), 5 (PDR), 6 (Delay), 7-8 (Alive/Dead Nodes)

[SUMMARY]
Metric,Value,Unit
FND (First Node Death),2742,s
HND (Half Node Death),3432,s
LND (90% Node Death),0,s
Total Rounds,70,rounds
Average PDR RL,99.6197,%
PDR RL pre-FND (stable phase),99.6353,%
Average PDR NS-3,84.605,%
Average End-to-End Delay,13.3408,ms
Total Energy Consumed,115.319,J

[TABLE_3_ENERGY_CONSUMPTION_J]
Round,EnergyConsumed_J
50,1.665382
100.000000,3.326917
150.000000,4.991198
200.000000,6.668964
250.000000,8.242282
300.000000,9.812355
350.000000,11.359630
400.000000,12.909201
450.000000,14.547473
500.000000,16.181389
550.000000,17.872377
600.000000,19.563153
650.000000,21.323277
700.000000,23.034852
750.000000,24.836759
800.000000,26.638388
850.000000,28.470433
900.000000,30.207177
950.000000,31.947419
1000.000000,33.613054
1050.000000,35.354804
1100.000000,37.039917
1150.000000,38.764601
1200.000000,40.404666
1250.000000,42.188661
1300.000000,43.868508
1350.000000,45.669635
1400.000000,47.367840
1450.000000,48.994686
1500.000000,50.571014
1550.000000,52.274209
1600.000000,53.853296
1650.000000,55.596862
1700.000000,57.259348
1750.000000,58.988326
1800.000000,60.668174
1850.000000,62.343753
1900.000000,63.976185
1950.000000,65.843468
2000.000000,67.592376
2050.000000,69.378802
2100.000000,71.098882
2150.000000,72.960254
2200.000000,74.710284
2250.000000,76.454570
2300.000000,78.050398
2350.000000,79.884064
2400.000000,81.632586
2450.000000,83.467021
2500.000000,85.235817
2550.000000,87.029408
2600.000000,88.761910
2650.000000,90.552242
2700.000000,92.244152
2750.000000,94.196592
2800.000000,96.007956
2850.000000,97.786694
2900.000000,99.552821
2950.000000,101.262255
3000.000000,102.959016
3050.000000,104.550040
3100.000000,106.093716
3150.000000,107.653309
3200.000000,109.162940
3250.000000,110.491549
3300.000000,111.689255
3350.000000,112.837439
3400.000000,113.779957
3450.000000,114.604046
3500.000000,115.318958

[TABLE_4_NETWORK_LIFETIME]
Round,AliveNodes,DeadNodes,Time_s
50.000000,100,0,50.000000
100.000000,100,0,100.000000
150.000000,100,0,150.000000
200.000000,100,0,200.000000
250.000000,100,0,250.000000
300.000000,100,0,300.000000
350.000000,100,0,350.000000
400.000000,100,0,400.000000
450.000000,100,0,450.000000
500.000000,100,0,500.000000
550.000000,100,0,550.000000
600.000000,100,0,600.000000
650.000000,100,0,650.000000
700.000000,100,0,700.000000
750.000000,100,0,750.000000
800.000000,100,0,800.000000
850.000000,100,0,850.000000
900.000000,100,0,900.000000
950.000000,100,0,950.000000
1000.000000,100,0,1000.000000
1050.000000,100,0,1050.000000
1100.000000,100,0,1100.000000
1150.000000,100,0,1150.000000
1200.000000,100,0,1200.000000
1250.000000,100,0,1250.000000
1300.000000,100,0,1300.000000
1350.000000,100,0,1350.000000
1400.000000,100,0,1400.000000
1450.000000,100,0,1450.000000
1500.000000,100,0,1500.000000
1550.000000,100,0,1550.000000
1600.000000,100,0,1600.000000
1650.000000,100,0,1650.000000
1700.000000,100,0,1700.000000
1750.000000,100,0,1750.000000
1800.000000,100,0,1800.000000
1850.000000,100,0,1850.000000
1900.000000,100,0,1900.000000
1950.000000,100,0,1950.000000
2000.000000,100,0,2000.000000
2050.000000,100,0,2050.000000
2100.000000,100,0,2100.000000
2150.000000,100,0,2150.000000
2200.000000,100,0,2200.000000
2250.000000,100,0,2250.000000
2300.000000,100,0,2300.000000
2350.000000,100,0,2350.000000
2400.000000,100,0,2400.000000
2450.000000,100,0,2450.000000
2500.000000,100,0,2500.000000
2550.000000,100,0,2550.000000
2600.000000,100,0,2600.000000
2650.000000,100,0,2650.000000
2700.000000,100,0,2700.000000
2750.000000,99,1,2750.000000
2800.000000,99,1,2800.000000
2850.000000,99,1,2850.000000
2900.000000,99,1,2900.000000
2950.000000,99,1,2950.000000
3000.000000,98,2,3000.000000
3050.000000,95,5,3050.000000
3100.000000,92,8,3100.000000
3150.000000,90,10,3150.000000
3200.000000,83,17,3200.000000
3250.000000,74,26,3250.000000
3300.000000,66,34,3300.000000
3350.000000,63,37,3350.000000
3400.000000,54,46,3400.000000
3450.000000,49,51,3450.000000
3500.000000,42,58,3500.000000

[TABLE_5_PDR_PERCENT]
Round,PDR_RL_pct,PDR_NS3_pct
50.000000,100.00,79.91
100.00,100.00,79.91
150.00,100.00,79.91
200.00,100.00,79.91
250.00,100.00,85.21
300.00,100.00,85.21
350.00,99.93,85.21
400.00,99.86,85.21
450.00,99.83,85.21
500.00,99.81,85.68
550.00,99.83,85.68
600.00,99.84,85.68
650.00,99.78,85.68
700.00,99.71,85.68
750.00,99.69,85.41
800.00,99.67,85.41
850.00,99.68,85.41
900.00,99.69,85.41
950.00,99.69,85.41
1000.00,99.70,85.50
1050.00,99.70,85.50
1100.00,99.72,85.50
1150.00,99.63,85.50
1200.00,99.65,85.50
1250.00,99.63,85.84
1300.00,99.64,85.84
1350.00,99.64,85.84
1400.00,99.65,85.84
1450.00,99.63,85.84
1500.00,99.65,84.55
1550.00,99.64,84.55
1600.00,99.65,84.55
1650.00,99.66,84.55
1700.00,99.66,84.55
1750.00,99.67,84.13
1800.00,99.68,84.13
1850.00,99.66,84.13
1900.00,99.67,84.13
1950.00,99.68,84.13
2000.00,99.69,84.27
2050.00,99.70,84.27
2100.00,99.67,84.27
2150.00,99.67,84.27
2200.00,99.66,84.27
2250.00,99.65,84.24
2300.00,99.66,84.24
2350.00,99.67,84.24
2400.00,99.67,84.24
2450.00,99.66,84.24
2500.00,99.64,84.74
2550.00,99.63,84.74
2600.00,99.62,84.74
2650.00,99.63,84.74
2700.00,99.63,84.74
2750.00,99.63,84.68
2800.00,99.63,84.68
2850.00,99.63,84.68
2900.00,99.62,84.68
2950.00,99.61,84.68
3000.00,99.61,84.37
3050.00,99.59,84.37
3100.00,99.56,84.37
3150.00,99.54,84.37
3200.00,99.41,84.37
3250.00,99.39,84.81
3300.00,98.96,84.81
3350.00,98.93,84.81
3400.00,98.54,84.81
3450.00,98.47,84.81
3500.00,98.15,85.52

[TABLE_6_END_TO_END_DELAY_ms]
Round,Delay_ms
500.00,12.13
1000.00,12.13
1500.00,12.66
2000.00,12.66
2500.00,13.29
3000.00,13.29
3500.00,13.48
4000.00,13.48
4500.00,13.72
5000.00,13.72
5500.00,14.06
6000.00,14.06
6500.00,13.87
7000.00,13.77
7500.00,13.58
8000.00,13.58
8500.00,13.09
9000.00,13.00
9500.00,12.76
10000.00,12.76
10500.00,13.14
11000.00,13.05
11500.00,14.35
12000.00,13.96
12500.00,13.43
13000.00,13.34
13500.00,12.85
14000.00,12.66
14500.00,13.77
15000.00,13.67
15500.00,13.72
16000.00,13.53
16500.00,13.14
17000.00,13.05
17500.00,13.05
18000.00,12.95
18500.00,13.14
19000.00,12.95
19500.00,15.56
20000.00,15.27
20500.00,13.87
21000.00,13.77
21500.00,14.06
22000.00,14.06
22500.00,13.53
23000.00,13.34
23500.00,14.40
24000.00,14.30
24500.00,14.16
25000.00,14.06
25500.00,13.63
26000.00,13.43
26500.00,14.79
27000.00,14.59
27500.00,14.89
28000.00,14.89
28500.00,14.01
29000.00,14.01
29500.00,12.93
30000.00,12.87
30500.00,12.97
31000.00,12.19
31500.00,13.85
32000.00,11.53
32500.00,13.65
33000.00,9.81
33500.00,12.27
34000.00,10.02
34500.00,12.43
35000.00,9.89

[TABLE_7_ALIVE_NODES]
Round,AliveNodes
50.00,100
100.00,100
150.00,100
200.00,100
250.00,100
300.00,100
350.00,100
400.00,100
450.00,100
500.00,100
550.00,100
600.00,100
650.00,100
700.00,100
750.00,100
800.00,100
850.00,100
900.00,100
950.00,100
1000.00,100
1050.00,100
1100.00,100
1150.00,100
1200.00,100
1250.00,100
1300.00,100
1350.00,100
1400.00,100
1450.00,100
1500.00,100
1550.00,100
1600.00,100
1650.00,100
1700.00,100
1750.00,100
1800.00,100
1850.00,100
1900.00,100
1950.00,100
2000.00,100
2050.00,100
2100.00,100
2150.00,100
2200.00,100
2250.00,100
2300.00,100
2350.00,100
2400.00,100
2450.00,100
2500.00,100
2550.00,100
2600.00,100
2650.00,100
2700.00,100
2750.00,99
2800.00,99
2850.00,99
2900.00,99
2950.00,99
3000.00,98
3050.00,95
3100.00,92
3150.00,90
3200.00,83
3250.00,74
3300.00,66
3350.00,63
3400.00,54
3450.00,49
3500.00,42

[TABLE_8_DEAD_NODES]
Round,DeadNodes
50.00,0
100.00,0
150.00,0
200.00,0
250.00,0
300.00,0
350.00,0
400.00,0
450.00,0
500.00,0
550.00,0
600.00,0
650.00,0
700.00,0
750.00,0
800.00,0
850.00,0
900.00,0
950.00,0
1000.00,0
1050.00,0
1100.00,0
1150.00,0
1200.00,0
1250.00,0
1300.00,0
1350.00,0
1400.00,0
1450.00,0
1500.00,0
1550.00,0
1600.00,0
1650.00,0
1700.00,0
1750.00,0
1800.00,0
1850.00,0
1900.00,0
1950.00,0
2000.00,0
2050.00,0
2100.00,0
2150.00,0
2200.00,0
2250.00,0
2300.00,0
2350.00,0
2400.00,0
2450.00,0
2500.00,0
2550.00,0
2600.00,0
2650.00,0
2700.00,0
2750.00,1
2800.00,1
2850.00,1
2900.00,1
2950.00,1
3000.00,2
3050.00,5
3100.00,8
3150.00,10
3200.00,17
3250.00,26
3300.00,34
3350.00,37
3400.00,46
3450.00,51
3500.00,58

[TABLE_RL_METRICS]
Round,RL_Steps,Fed_Rounds
50.00,1000,20
100.00,2000,40
150.00,3000,60
200.00,4000,80
250.00,5000,100
300.00,6000,120
350.00,7000,140
400.00,8000,160
450.00,9000,180
500.00,10000,200
550.00,11000,220
600.00,12000,240
650.00,13000,260
700.00,14000,280
750.00,15000,300
800.00,16000,320
850.00,17000,340
900.00,18000,360
950.00,19000,380
1000.00,20000,400
1050.00,21000,420
1100.00,22000,440
1150.00,23000,460
1200.00,24000,480
1250.00,25000,500
1300.00,26000,520
1350.00,27000,540
1400.00,28000,560
1450.00,29000,580
1500.00,30000,600
1550.00,31000,620
1600.00,32000,640
1650.00,33000,660
1700.00,34000,680
1750.00,35000,700
1800.00,36000,720
1850.00,37000,740
1900.00,38000,760
1950.00,39000,780
2000.00,40000,800
2050.00,41000,820
2100.00,42000,840
2150.00,43000,860
2200.00,44000,880
2250.00,45000,900
2300.00,46000,920
2350.00,47000,940
2400.00,48000,960
2450.00,49000,980
2500.00,50000,1000
2550.00,51000,1020
2600.00,52000,1040
2650.00,53000,1060
2700.00,54000,1080
2750.00,54999,1099
2800.00,55989,1119
2850.00,56979,1139
2900.00,57969,1159
2950.00,58959,1179
3000.00,59944,1198
3050.00,60907,1218
3100.00,61846,1236
3150.00,62751,1255
3200.00,63626,1272
3250.00,64420,1288
3300.00,65130,1302
3350.00,65784,1315
3400.00,66359,1327
3450.00,66873,1337
3500.00,67329,1346
