# FDQN-TE+ Comparison Metrics (vs Article) - Énergie en Joules
# Tables: 3 (Energy), 4 (Lifetime), 5 (PDR), 6 (Delay), 7-8 (Alive/Dead Nodes)

[SUMMARY]
Metric,Value,Unit
FND (First Node Death),762,s
HND (Half Node Death),2617,s
LND (90% Node Death),0,s
Total Rounds,70,rounds
Average PDR RL,99.2439,%
PDR RL pre-FND (stable phase),99.9079,%
Average PDR NS-3,100,%
Average End-to-End Delay,10.875,ms
Total Energy Consumed,112.466,J

[TABLE_3_ENERGY_CONSUMPTION_J]
Round,EnergyConsumed_J
50,2.692520
100.000000,5.385041
150.000000,7.975754
200.000000,10.566467
250.000000,12.911755
300.000000,15.257042
350.000000,17.500098
400.000000,19.744036
450.000000,22.101322
500.000000,24.458609
550.000000,26.721570
600.000000,28.986015
650.000000,31.229999
700.000000,33.473982
750.000000,35.899992
800.000000,38.252241
850.000000,40.823208
900.000000,43.390951
950.000000,45.915670
1000.000000,48.363768
1050.000000,50.554282
1100.000000,52.744796
1150.000000,54.841088
1200.000000,56.882178
1250.000000,59.038909
1300.000000,61.195641
1350.000000,63.104665
1400.000000,64.936704
1450.000000,66.943625
1500.000000,68.862197
1550.000000,70.957080
1600.000000,72.861156
1650.000000,74.516439
1700.000000,76.101522
1750.000000,77.885499
1800.000000,79.665278
1850.000000,81.180440
1900.000000,82.589731
1950.000000,84.222396
2000.000000,85.795282
2050.000000,87.453463
2100.000000,89.023632
2150.000000,90.222172
2200.000000,91.301110
2250.000000,92.649873
2300.000000,93.909037
2350.000000,95.176337
2400.000000,96.392354
2450.000000,97.538695
2500.000000,98.519888
2550.000000,99.606855
2600.000000,100.645927
2650.000000,101.543949
2700.000000,102.392697
2750.000000,103.351979
2800.000000,104.293603
2850.000000,105.083538
2900.000000,105.850754
2950.000000,106.626366
3000.000000,107.326614
3050.000000,108.008743
3100.000000,108.682690
3150.000000,109.313278
3200.000000,109.901999
3250.000000,110.416460
3300.000000,110.912903
3350.000000,111.406576
3400.000000,111.825639
3450.000000,112.161990
3500.000000,112.466164

[TABLE_4_NETWORK_LIFETIME]
Round,AliveNodes,DeadNodes,Time_s
50.000000,100,0,50.000000
100.000000,100,0,100.000000
150.000000,100,0,150.000000
200.000000,100,0,200.000000
250.000000,100,0,250.000000
300.000000,100,0,300.000000
350.000000,100,0,350.000000
400.000000,100,0,400.000000
450.000000,100,0,450.000000
500.000000,100,0,500.000000
550.000000,100,0,550.000000
600.000000,100,0,600.000000
650.000000,100,0,650.000000
700.000000,100,0,700.000000
750.000000,100,0,750.000000
800.000000,99,1,800.000000
850.000000,99,1,850.000000
900.000000,99,1,900.000000
950.000000,99,1,950.000000
1000.000000,98,2,1000.000000
1050.000000,98,2,1050.000000
1100.000000,98,2,1100.000000
1150.000000,97,3,1150.000000
1200.000000,97,3,1200.000000
1250.000000,97,3,1250.000000
1300.000000,97,3,1300.000000
1350.000000,96,4,1350.000000
1400.000000,95,5,1400.000000
1450.000000,92,8,1450.000000
1500.000000,91,9,1500.000000
1550.000000,86,14,1550.000000
1600.000000,85,15,1600.000000
1650.000000,84,16,1650.000000
1700.000000,84,16,1700.000000
1750.000000,84,16,1750.000000
1800.000000,82,18,1800.000000
1850.000000,81,19,1850.000000
1900.000000,78,22,1900.000000
1950.000000,75,25,1950.000000
2000.000000,73,27,2000.000000
2050.000000,71,29,2050.000000
2100.000000,68,32,2100.000000
2150.000000,64,36,2150.000000
2200.000000,63,37,2200.000000
2250.000000,61,39,2250.000000
2300.000000,59,41,2300.000000
2350.000000,58,42,2350.000000
2400.000000,58,42,2400.000000
2450.000000,56,44,2450.000000
2500.000000,52,48,2500.000000
2550.000000,52,48,2550.000000
2600.000000,51,49,2600.000000
2650.000000,48,52,2650.000000
2700.000000,47,53,2700.000000
2750.000000,46,54,2750.000000
2800.000000,46,54,2800.000000
2850.000000,44,56,2850.000000
2900.000000,41,59,2900.000000
2950.000000,38,62,2950.000000
3000.000000,36,64,3000.000000
3050.000000,36,64,3050.000000
3100.000000,35,65,3100.000000
3150.000000,34,66,3150.000000
3200.000000,31,69,3200.000000
3250.000000,29,71,3250.000000
3300.000000,29,71,3300.000000
3350.000000,28,72,3350.000000
3400.000000,26,74,3400.000000
3450.000000,22,78,3450.000000
3500.000000,22,78,3500.000000

[TABLE_5_PDR_PERCENT]
Round,PDR_RL_pct,PDR_NS3_pct
50.000000,100.00,100.00
100.00,99.85,100.00
150.00,99.90,100.00
200.00,99.92,100.00
250.00,99.94,100.00
300.00,99.95,100.00
350.00,99.96,100.00
400.00,99.96,100.00
450.00,99.97,100.00
500.00,99.97,100.00
550.00,99.97,100.00
600.00,99.97,100.00
650.00,99.94,100.00
700.00,99.93,100.00
750.00,99.91,100.00
800.00,99.79,100.00
850.00,99.81,100.00
900.00,99.82,100.00
950.00,99.83,100.00
1000.00,99.83,100.00
1050.00,99.84,100.00
1100.00,99.84,100.00
1150.00,99.83,100.00
1200.00,99.80,100.00
1250.00,99.81,100.00
1300.00,99.81,100.00
1350.00,99.79,100.00
1400.00,99.68,100.00
1450.00,99.53,100.00
1500.00,99.35,100.00
1550.00,99.33,100.00
1600.00,99.26,100.00
1650.00,99.27,100.00
1700.00,99.26,100.00
1750.00,99.27,100.00
1800.00,99.28,100.00
1850.00,99.28,100.00
1900.00,99.16,100.00
1950.00,99.05,100.00
2000.00,98.85,100.00
2050.00,98.84,100.00
2100.00,98.77,100.00
2150.00,98.75,100.00
2200.00,98.65,100.00
2250.00,98.66,100.00
2300.00,98.68,100.00
2350.00,98.69,100.00
2400.00,98.71,100.00
2450.00,98.72,100.00
2500.00,98.67,100.00
2550.00,98.68,100.00
2600.00,98.69,100.00
2650.00,98.68,100.00
2700.00,98.63,100.00
2750.00,98.64,100.00
2800.00,98.63,100.00
2850.00,98.64,100.00
2900.00,98.64,100.00
2950.00,98.62,100.00
3000.00,98.58,100.00
3050.00,98.59,100.00
3100.00,98.58,100.00
3150.00,98.59,100.00
3200.00,98.59,100.00
3250.00,98.59,100.00
3300.00,98.60,100.00
3350.00,98.61,100.00
3400.00,98.61,100.00
3450.00,98.61,100.00
3500.00,98.62,100.00

[TABLE_6_END_TO_END_DELAY_ms]
Round,Delay_ms
500.00,12.56
1000.00,12.56
1500.00,12.51
2000.00,12.51
2500.00,13.14
3000.00,13.14
3500.00,12.13
4000.00,12.13
4500.00,12.71
5000.00,12.71
5500.00,12.80
6000.00,12.80
6500.00,12.61
7000.00,12.61
7500.00,12.37
8000.00,12.25
8500.00,12.35
9000.00,12.35
9500.00,12.45
10000.00,12.43
10500.00,12.38
11000.00,12.38
11500.00,12.70
12000.00,12.70
12500.00,12.60
13000.00,12.60
13500.00,12.68
14000.00,12.56
14500.00,12.61
15000.00,12.58
15500.00,11.80
16000.00,11.65
16500.00,11.85
17000.00,11.85
17500.00,11.91
18000.00,11.79
18500.00,11.81
19000.00,11.46
19500.00,11.15
20000.00,10.99
20500.00,11.30
21000.00,11.16
21500.00,10.95
22000.00,10.81
22500.00,11.25
23000.00,11.22
23500.00,10.08
24000.00,10.08
24500.00,10.79
25000.00,10.41
25500.00,9.76
26000.00,9.76
26500.00,10.37
27000.00,10.38
27500.00,8.93
28000.00,8.93
28500.00,9.22
29000.00,8.84
29500.00,8.14
30000.00,7.92
30500.00,7.92
31000.00,7.73
31500.00,7.82
32000.00,7.48
32500.00,6.66
33000.00,6.66
33500.00,6.39
34000.00,6.13
34500.00,5.49
35000.00,5.49

[TABLE_7_ALIVE_NODES]
Round,AliveNodes
50.00,100
100.00,100
150.00,100
200.00,100
250.00,100
300.00,100
350.00,100
400.00,100
450.00,100
500.00,100
550.00,100
600.00,100
650.00,100
700.00,100
750.00,100
800.00,99
850.00,99
900.00,99
950.00,99
1000.00,98
1050.00,98
1100.00,98
1150.00,97
1200.00,97
1250.00,97
1300.00,97
1350.00,96
1400.00,95
1450.00,92
1500.00,91
1550.00,86
1600.00,85
1650.00,84
1700.00,84
1750.00,84
1800.00,82
1850.00,81
1900.00,78
1950.00,75
2000.00,73
2050.00,71
2100.00,68
2150.00,64
2200.00,63
2250.00,61
2300.00,59
2350.00,58
2400.00,58
2450.00,56
2500.00,52
2550.00,52
2600.00,51
2650.00,48
2700.00,47
2750.00,46
2800.00,46
2850.00,44
2900.00,41
2950.00,38
3000.00,36
3050.00,36
3100.00,35
3150.00,34
3200.00,31
3250.00,29
3300.00,29
3350.00,28
3400.00,26
3450.00,22
3500.00,22

[TABLE_8_DEAD_NODES]
Round,DeadNodes
50.00,0
100.00,0
150.00,0
200.00,0
250.00,0
300.00,0
350.00,0
400.00,0
450.00,0
500.00,0
550.00,0
600.00,0
650.00,0
700.00,0
750.00,0
800.00,1
850.00,1
900.00,1
950.00,1
1000.00,2
1050.00,2
1100.00,2
1150.00,3
1200.00,3
1250.00,3
1300.00,3
1350.00,4
1400.00,5
1450.00,8
1500.00,9
1550.00,14
1600.00,15
1650.00,16
1700.00,16
1750.00,16
1800.00,18
1850.00,19
1900.00,22
1950.00,25
2000.00,27
2050.00,29
2100.00,32
2150.00,36
2200.00,37
2250.00,39
2300.00,41
2350.00,42
2400.00,42
2450.00,44
2500.00,48
2550.00,48
2600.00,49
2650.00,52
2700.00,53
2750.00,54
2800.00,54
2850.00,56
2900.00,59
2950.00,62
3000.00,64
3050.00,64
3100.00,65
3150.00,66
3200.00,69
3250.00,71
3300.00,71
3350.00,72
3400.00,74
3450.00,78
3500.00,78

[TABLE_RL_METRICS]
Round,RL_Steps,Fed_Rounds
50.00,1000,0
100.00,2000,0
150.00,3000,0
200.00,4000,0
250.00,5000,0
300.00,6000,0
350.00,7000,0
400.00,8000,0
450.00,9000,0
500.00,10000,0
550.00,11000,0
600.00,12000,0
650.00,13000,0
700.00,14000,0
750.00,15000,0
800.00,15993,0
850.00,16983,0
900.00,17973,0
950.00,18963,0
1000.00,19947,0
1050.00,20927,0
1100.00,21907,0
1150.00,22884,0
1200.00,23854,0
1250.00,24824,0
1300.00,25794,0
1350.00,26760,0
1400.00,27717,0
1450.00,28652,0
1500.00,29570,0
1550.00,30455,0
1600.00,31308,0
1650.00,32158,0
1700.00,32998,0
1750.00,33838,0
1800.00,34675,0
1850.00,35492,0
1900.00,36292,0
1950.00,37058,0
2000.00,37804,0
2050.00,38524,0
2100.00,39224,0
2150.00,39894,0
2200.00,40525,0
2250.00,41139,0
2300.00,41735,0
2350.00,42324,0
2400.00,42904,0
2450.00,43481,0
2500.00,44014,0
2550.00,44534,0
2600.00,45045,0
2650.00,45545,0
2700.00,46025,0
2750.00,46493,0
2800.00,46953,0
2850.00,47397,0
2900.00,47835,0
2950.00,48232,0
3000.00,48610,0
3050.00,48970,0
3100.00,49325,0
3150.00,49666,0
3200.00,49993,0
3250.00,50289,0
3300.00,50579,0
3350.00,50868,0
3400.00,51131,0
3450.00,51364,0
3500.00,51584,0
