# FDQN-TE+ Comparison Metrics (vs Article) - Énergie en Joules
# Tables: 3 (Energy), 4 (Lifetime), 5 (PDR), 6 (Delay), 7-8 (Alive/Dead Nodes)

[SUMMARY]
Metric,Value,Unit
FND (First Node Death),3152,s
HND (Half Node Death),0,s
LND (90% Node Death),0,s
Total Rounds,70,rounds
Average PDR RL,99.2786,%
PDR RL pre-FND (stable phase),99.118,%
Average PDR NS-3,99.9206,%
Average End-to-End Delay,12.0557,ms
Total Energy Consumed,54.0011,J

[TABLE_3_ENERGY_CONSUMPTION_J]
Round,EnergyConsumed_J
50,0.706753
100.000000,1.412786
150.000000,2.099113
200.000000,2.787854
250.000000,3.555435
300.000000,4.322204
350.000000,4.981040
400.000000,5.638444
450.000000,6.350259
500.000000,7.062415
550.000000,7.760398
600.000000,8.454138
650.000000,9.180016
700.000000,9.906137
750.000000,10.649227
800.000000,11.391735
850.000000,12.112185
900.000000,12.830857
950.000000,13.511873
1000.000000,14.199986
1050.000000,14.912142
1100.000000,15.625312
1150.000000,16.476112
1200.000000,17.327436
1250.000000,18.038661
1300.000000,18.748971
1350.000000,19.535858
1400.000000,20.303770
1450.000000,21.064082
1500.000000,21.814900
1550.000000,22.573908
1600.000000,23.331145
1650.000000,24.121481
1700.000000,24.912004
1750.000000,25.747210
1800.000000,26.556752
1850.000000,27.365516
1900.000000,28.164845
1950.000000,29.005784
2000.000000,29.826303
2050.000000,30.658171
2100.000000,31.454750
2150.000000,32.334396
2200.000000,33.179519
2250.000000,34.015422
2300.000000,34.825269
2350.000000,35.649641
2400.000000,36.438738
2450.000000,37.205895
2500.000000,37.969992
2550.000000,38.734019
2600.000000,39.433164
2650.000000,40.248984
2700.000000,41.054366
2750.000000,41.882310
2800.000000,42.656746
2850.000000,43.523583
2900.000000,44.352556
2950.000000,45.238297
3000.000000,46.082712
3050.000000,46.887621
3100.000000,47.689415
3150.000000,48.575456
3200.000000,49.425672
3250.000000,50.230757
3300.000000,51.048300
3350.000000,51.899485
3400.000000,52.701123
3450.000000,53.390862
3500.000000,54.001070

[TABLE_4_NETWORK_LIFETIME]
Round,AliveNodes,DeadNodes,Time_s
50.000000,50,0,50.000000
100.000000,50,0,100.000000
150.000000,50,0,150.000000
200.000000,50,0,200.000000
250.000000,50,0,250.000000
300.000000,50,0,300.000000
350.000000,50,0,350.000000
400.000000,50,0,400.000000
450.000000,50,0,450.000000
500.000000,50,0,500.000000
550.000000,50,0,550.000000
600.000000,50,0,600.000000
650.000000,50,0,650.000000
700.000000,50,0,700.000000
750.000000,50,0,750.000000
800.000000,50,0,800.000000
850.000000,50,0,850.000000
900.000000,50,0,900.000000
950.000000,50,0,950.000000
1000.000000,50,0,1000.000000
1050.000000,50,0,1050.000000
1100.000000,50,0,1100.000000
1150.000000,50,0,1150.000000
1200.000000,50,0,1200.000000
1250.000000,50,0,1250.000000
1300.000000,50,0,1300.000000
1350.000000,50,0,1350.000000
1400.000000,50,0,1400.000000
1450.000000,50,0,1450.000000
1500.000000,50,0,1500.000000
1550.000000,50,0,1550.000000
1600.000000,50,0,1600.000000
1650.000000,50,0,1650.000000
1700.000000,50,0,1700.000000
1750.000000,50,0,1750.000000
1800.000000,50,0,1800.000000
1850.000000,50,0,1850.000000
1900.000000,50,0,1900.000000
1950.000000,50,0,1950.000000
2000.000000,50,0,2000.000000
2050.000000,50,0,2050.000000
2100.000000,50,0,2100.000000
2150.000000,50,0,2150.000000
2200.000000,50,0,2200.000000
2250.000000,50,0,2250.000000
2300.000000,50,0,2300.000000
2350.000000,50,0,2350.000000
2400.000000,50,0,2400.000000
2450.000000,50,0,2450.000000
2500.000000,50,0,2500.000000
2550.000000,50,0,2550.000000
2600.000000,50,0,2600.000000
2650.000000,50,0,2650.000000
2700.000000,50,0,2700.000000
2750.000000,50,0,2750.000000
2800.000000,50,0,2800.000000
2850.000000,50,0,2850.000000
2900.000000,50,0,2900.000000
2950.000000,50,0,2950.000000
3000.000000,50,0,3000.000000
3050.000000,50,0,3050.000000
3100.000000,50,0,3100.000000
3150.000000,50,0,3150.000000
3200.000000,49,1,3200.000000
3250.000000,48,2,3250.000000
3300.000000,48,2,3300.000000
3350.000000,46,4,3350.000000
3400.000000,45,5,3400.000000
3450.000000,42,8,3450.000000
3500.000000,38,12,3500.000000

[TABLE_5_PDR_PERCENT]
Round,PDR_RL_pct,PDR_NS3_pct
50.000000,100.00,99.76
100.00,100.00,99.76
150.00,100.00,99.76
200.00,100.00,99.76
250.00,100.00,99.96
300.00,100.00,99.96
350.00,99.71,99.96
400.00,99.47,99.96
450.00,99.27,99.96
500.00,99.04,99.94
550.00,99.00,99.94
600.00,99.05,99.94
650.00,99.03,99.94
700.00,99.07,99.94
750.00,99.12,99.94
800.00,99.16,99.94
850.00,99.21,99.94
900.00,99.23,99.94
950.00,99.27,99.94
1000.00,99.31,99.96
1050.00,99.29,99.96
1100.00,99.25,99.96
1150.00,99.24,99.96
1200.00,99.24,99.96
1250.00,99.23,99.93
1300.00,99.21,99.93
1350.00,99.19,99.93
1400.00,99.19,99.93
1450.00,99.21,99.93
1500.00,99.24,99.93
1550.00,99.22,99.93
1600.00,99.22,99.93
1650.00,99.24,99.93
1700.00,99.24,99.93
1750.00,99.24,99.93
1800.00,99.26,99.93
1850.00,99.28,99.93
1900.00,99.26,99.93
1950.00,99.28,99.93
2000.00,99.30,99.92
2050.00,99.32,99.92
2100.00,99.30,99.92
2150.00,99.32,99.92
2200.00,99.34,99.92
2250.00,99.35,99.91
2300.00,99.37,99.91
2350.00,99.34,99.91
2400.00,99.35,99.91
2450.00,99.29,99.91
2500.00,99.27,99.92
2550.00,99.19,99.92
2600.00,99.17,99.92
2650.00,99.15,99.92
2700.00,99.15,99.92
2750.00,99.14,99.92
2800.00,99.15,99.92
2850.00,99.15,99.92
2900.00,99.16,99.92
2950.00,99.17,99.92
3000.00,99.16,99.92
3050.00,99.14,99.92
3100.00,99.13,99.92
3150.00,99.12,99.92
3200.00,99.10,99.92
3250.00,99.11,99.92
3300.00,99.09,99.92
3350.00,99.10,99.92
3400.00,99.10,99.92
3450.00,99.08,99.92
3500.00,98.88,99.92

[TABLE_6_END_TO_END_DELAY_ms]
Round,Delay_ms
500.00,9.57
1000.00,9.57
1500.00,9.47
2000.00,9.47
2500.00,11.21
3000.00,11.21
3500.00,10.15
4000.00,10.15
4500.00,12.95
5000.00,12.95
5500.00,12.18
6000.00,12.18
6500.00,12.47
7000.00,12.47
7500.00,11.79
8000.00,11.79
8500.00,10.24
9000.00,10.24
9500.00,10.34
10000.00,10.34
10500.00,10.53
11000.00,10.53
11500.00,13.34
12000.00,13.34
12500.00,11.89
13000.00,11.89
13500.00,11.98
14000.00,11.79
14500.00,11.21
15000.00,11.02
15500.00,11.21
16000.00,11.40
16500.00,11.89
17000.00,11.89
17500.00,12.76
18000.00,12.37
18500.00,11.69
19000.00,11.50
19500.00,11.79
20000.00,11.79
20500.00,13.05
21000.00,12.85
21500.00,13.63
22000.00,13.24
22500.00,12.08
23000.00,11.89
23500.00,12.56
24000.00,12.18
24500.00,13.63
25000.00,13.43
25500.00,13.14
26000.00,12.56
26500.00,12.76
27000.00,12.76
27500.00,13.43
28000.00,12.85
28500.00,12.95
29000.00,12.76
29500.00,14.11
30000.00,13.72
30500.00,12.66
31000.00,12.66
31500.00,13.34
32000.00,13.12
32500.00,12.89
33000.00,13.09
33500.00,14.18
34000.00,14.17
34500.00,12.54
35000.00,9.16

[TABLE_7_ALIVE_NODES]
Round,AliveNodes
50.00,50
100.00,50
150.00,50
200.00,50
250.00,50
300.00,50
350.00,50
400.00,50
450.00,50
500.00,50
550.00,50
600.00,50
650.00,50
700.00,50
750.00,50
800.00,50
850.00,50
900.00,50
950.00,50
1000.00,50
1050.00,50
1100.00,50
1150.00,50
1200.00,50
1250.00,50
1300.00,50
1350.00,50
1400.00,50
1450.00,50
1500.00,50
1550.00,50
1600.00,50
1650.00,50
1700.00,50
1750.00,50
1800.00,50
1850.00,50
1900.00,50
1950.00,50
2000.00,50
2050.00,50
2100.00,50
2150.00,50
2200.00,50
2250.00,50
2300.00,50
2350.00,50
2400.00,50
2450.00,50
2500.00,50
2550.00,50
2600.00,50
2650.00,50
2700.00,50
2750.00,50
2800.00,50
2850.00,50
2900.00,50
2950.00,50
3000.00,50
3050.00,50
3100.00,50
3150.00,50
3200.00,49
3250.00,48
3300.00,48
3350.00,46
3400.00,45
3450.00,42
3500.00,38

[TABLE_8_DEAD_NODES]
Round,DeadNodes
50.00,0
100.00,0
150.00,0
200.00,0
250.00,0
300.00,0
350.00,0
400.00,0
450.00,0
500.00,0
550.00,0
600.00,0
650.00,0
700.00,0
750.00,0
800.00,0
850.00,0
900.00,0
950.00,0
1000.00,0
1050.00,0
1100.00,0
1150.00,0
1200.00,0
1250.00,0
1300.00,0
1350.00,0
1400.00,0
1450.00,0
1500.00,0
1550.00,0
1600.00,0
1650.00,0
1700.00,0
1750.00,0
1800.00,0
1850.00,0
1900.00,0
1950.00,0
2000.00,0
2050.00,0
2100.00,0
2150.00,0
2200.00,0
2250.00,0
2300.00,0
2350.00,0
2400.00,0
2450.00,0
2500.00,0
2550.00,0
2600.00,0
2650.00,0
2700.00,0
2750.00,0
2800.00,0
2850.00,0
2900.00,0
2950.00,0
3000.00,0
3050.00,0
3100.00,0
3150.00,0
3200.00,1
3250.00,2
3300.00,2
3350.00,4
3400.00,5
3450.00,8
3500.00,12

[TABLE_RL_METRICS]
Round,RL_Steps,Fed_Rounds
50.00,500,10
100.00,1000,20
150.00,1500,30
200.00,2000,40
250.00,2500,50
300.00,3000,60
350.00,3500,70
400.00,4000,80
450.00,4500,90
500.00,5000,100
550.00,5500,110
600.00,6000,120
650.00,6500,130
700.00,7000,140
750.00,7500,150
800.00,8000,160
850.00,8500,170
900.00,9000,180
950.00,9500,190
1000.00,10000,200
1050.00,10500,210
1100.00,11000,220
1150.00,11500,230
1200.00,12000,240
1250.00,12500,250
1300.00,13000,260
1350.00,13500,270
1400.00,14000,280
1450.00,14500,290
1500.00,15000,300
1550.00,15500,310
1600.00,16000,320
1650.00,16500,330
1700.00,17000,340
1750.00,17500,350
1800.00,18000,360
1850.00,18500,370
1900.00,19000,380
1950.00,19500,390
2000.00,20000,400
2050.00,20500,410
2100.00,21000,420
2150.00,21500,430
2200.00,22000,440
2250.00,22500,450
2300.00,23000,460
2350.00,23500,470
2400.00,24000,480
2450.00,24500,490
2500.00,25000,500
2550.00,25500,510
2600.00,26000,520
2650.00,26500,530
2700.00,27000,540
2750.00,27500,550
2800.00,28000,560
2850.00,28500,570
2900.00,29000,580
2950.00,29500,590
3000.00,30000,600
3050.00,30500,610
3100.00,31000,620
3150.00,31500,630
3200.00,31991,639
3250.00,32474,649
3300.00,32954,659
3350.00,33428,668
3400.00,33881,677
3450.00,34322,686
3500.00,34725,694
