# FDQN-TE+ Comparison Metrics (vs Article) - Énergie en Joules
# Tables: 3 (Energy), 4 (Lifetime), 5 (PDR), 6 (Delay), 7-8 (Alive/Dead Nodes)

[SUMMARY]
Metric,Value,Unit
FND (First Node Death),387,s
HND (Half Node Death),2172,s
LND (90% Node Death),0,s
Total Rounds,70,rounds
Average PDR RL,95.4288,%
PDR RL pre-FND (stable phase),99.5141,%
Average PDR NS-3,100,%
Average End-to-End Delay,15.8777,ms
Total Energy Consumed,353.305,J

[TABLE_3_ENERGY_CONSUMPTION_J]
Round,EnergyConsumed_J
50,8.670795
100.000000,17.336702
150.000000,27.179565
200.000000,37.011134
250.000000,44.968587
300.000000,52.937836
350.000000,62.536893
400.000000,72.081397
450.000000,80.542374
500.000000,88.905737
550.000000,96.726688
600.000000,104.339344
650.000000,112.286516
700.000000,119.744851
750.000000,128.626505
800.000000,137.137747
850.000000,145.105314
900.000000,152.754399
950.000000,159.670434
1000.000000,166.579916
1050.000000,174.394762
1100.000000,181.537510
1150.000000,189.087999
1200.000000,195.947202
1250.000000,202.145323
1300.000000,208.022301
1350.000000,215.309664
1400.000000,221.867882
1450.000000,228.761746
1500.000000,234.397990
1550.000000,241.423638
1600.000000,248.018586
1650.000000,254.377155
1700.000000,259.747485
1750.000000,264.758484
1800.000000,269.474025
1850.000000,275.586240
1900.000000,280.659976
1950.000000,285.703356
2000.000000,290.046038
2050.000000,294.963150
2100.000000,299.448951
2150.000000,303.469641
2200.000000,306.948404
2250.000000,310.914938
2300.000000,314.317899
2350.000000,318.444859
2400.000000,321.940409
2450.000000,325.156694
2500.000000,327.983688
2550.000000,330.557242
2600.000000,332.730625
2650.000000,335.095331
2700.000000,336.957980
2750.000000,338.666854
2800.000000,340.255094
2850.000000,342.049236
2900.000000,343.650699
2950.000000,345.014373
3000.000000,346.155283
3050.000000,347.373417
3100.000000,348.357699
3150.000000,349.309352
3200.000000,349.996658
3250.000000,350.798873
3300.000000,351.346857
3350.000000,351.880045
3400.000000,352.383134
3450.000000,352.864658
3500.000000,353.304921

[TABLE_4_NETWORK_LIFETIME]
Round,AliveNodes,DeadNodes,Time_s
50.000000,300,0,50.000000
100.000000,300,0,100.000000
150.000000,300,0,150.000000
200.000000,300,0,200.000000
250.000000,300,0,250.000000
300.000000,300,0,300.000000
350.000000,300,0,350.000000
400.000000,298,2,400.000000
450.000000,297,3,450.000000
500.000000,295,5,500.000000
550.000000,295,5,550.000000
600.000000,293,7,600.000000
650.000000,293,7,650.000000
700.000000,291,9,700.000000
750.000000,289,11,750.000000
800.000000,287,13,800.000000
850.000000,286,14,850.000000
900.000000,283,17,900.000000
950.000000,282,18,950.000000
1000.000000,280,20,1000.000000
1050.000000,276,24,1050.000000
1100.000000,270,30,1100.000000
1150.000000,266,34,1150.000000
1200.000000,263,37,1200.000000
1250.000000,256,44,1250.000000
1300.000000,255,45,1300.000000
1350.000000,251,49,1350.000000
1400.000000,247,53,1400.000000
1450.000000,239,61,1450.000000
1500.000000,235,65,1500.000000
1550.000000,230,70,1550.000000
1600.000000,222,78,1600.000000
1650.000000,210,90,1650.000000
1700.000000,203,97,1700.000000
1750.000000,198,102,1750.000000
1800.000000,196,104,1800.000000
1850.000000,189,111,1850.000000
1900.000000,181,119,1900.000000
1950.000000,176,124,1950.000000
2000.000000,168,132,2000.000000
2050.000000,164,136,2050.000000
2100.000000,156,144,2100.000000
2150.000000,152,148,2150.000000
2200.000000,145,155,2200.000000
2250.000000,139,161,2250.000000
2300.000000,132,168,2300.000000
2350.000000,125,175,2350.000000
2400.000000,117,183,2400.000000
2450.000000,110,190,2450.000000
2500.000000,105,195,2500.000000
2550.000000,101,199,2550.000000
2600.000000,97,203,2600.000000
2650.000000,90,210,2650.000000
2700.000000,85,215,2700.000000
2750.000000,82,218,2750.000000
2800.000000,82,218,2800.000000
2850.000000,78,222,2850.000000
2900.000000,73,227,2900.000000
2950.000000,65,235,2950.000000
3000.000000,63,237,3000.000000
3050.000000,60,240,3050.000000
3100.000000,58,242,3100.000000
3150.000000,50,250,3150.000000
3200.000000,48,252,3200.000000
3250.000000,45,255,3250.000000
3300.000000,42,258,3300.000000
3350.000000,39,261,3350.000000
3400.000000,38,262,3400.000000
3450.000000,36,264,3450.000000
3500.000000,34,266,3500.000000

[TABLE_5_PDR_PERCENT]
Round,PDR_RL_pct,PDR_NS3_pct
50.000000,99.50,100.00
100.00,99.48,100.00
150.00,99.41,100.00
200.00,99.40,100.00
250.00,99.47,100.00
300.00,99.53,100.00
350.00,99.52,100.00
400.00,99.36,100.00
450.00,99.37,100.00
500.00,99.28,100.00
550.00,99.25,100.00
600.00,98.98,100.00
650.00,99.05,100.00
700.00,98.53,100.00
750.00,98.41,100.00
800.00,98.04,100.00
850.00,98.04,100.00
900.00,97.75,100.00
950.00,97.85,100.00
1000.00,97.91,100.00
1050.00,97.88,100.00
1100.00,97.15,100.00
1150.00,97.07,100.00
1200.00,96.66,100.00
1250.00,96.25,100.00
1300.00,95.62,100.00
1350.00,95.63,100.00
1400.00,95.52,100.00
1450.00,95.45,100.00
1500.00,95.09,100.00
1550.00,95.17,100.00
1600.00,95.06,100.00
1650.00,94.94,100.00
1700.00,94.49,100.00
1750.00,94.51,100.00
1800.00,94.40,100.00
1850.00,94.42,100.00
1900.00,94.27,100.00
1950.00,94.25,100.00
2000.00,93.98,100.00
2050.00,94.00,100.00
2100.00,93.87,100.00
2150.00,93.77,100.00
2200.00,93.44,100.00
2250.00,93.38,100.00
2300.00,93.22,100.00
2350.00,93.24,100.00
2400.00,93.20,100.00
2450.00,93.18,100.00
2500.00,93.07,100.00
2550.00,93.11,100.00
2600.00,93.03,100.00
2650.00,93.06,100.00
2700.00,93.05,100.00
2750.00,93.09,100.00
2800.00,93.11,100.00
2850.00,93.12,100.00
2900.00,93.05,100.00
2950.00,93.02,100.00
3000.00,92.94,100.00
3050.00,92.95,100.00
3100.00,92.93,100.00
3150.00,92.91,100.00
3200.00,92.86,100.00
3250.00,92.87,100.00
3300.00,92.89,100.00
3350.00,92.90,100.00
3400.00,92.91,100.00
3450.00,92.92,100.00
3500.00,92.92,100.00

[TABLE_6_END_TO_END_DELAY_ms]
Round,Delay_ms
500.00,19.30
1000.00,19.30
1500.00,19.55
2000.00,19.55
2500.00,20.44
3000.00,20.44
3500.00,19.54
4000.00,19.25
4500.00,20.06
5000.00,19.97
5500.00,20.59
6000.00,20.10
6500.00,19.28
7000.00,18.27
7500.00,18.84
8000.00,18.54
8500.00,18.80
9000.00,18.39
9500.00,18.71
10000.00,18.53
10500.00,18.84
11000.00,17.86
11500.00,18.91
12000.00,18.32
12500.00,17.67
13000.00,17.66
13500.00,17.75
14000.00,17.41
14500.00,17.55
15000.00,17.23
15500.00,18.07
16000.00,17.63
16500.00,16.94
17000.00,16.40
17500.00,17.06
18000.00,16.30
18500.00,17.00
19000.00,15.88
19500.00,16.17
20000.00,14.96
20500.00,15.73
21000.00,14.74
21500.00,15.70
22000.00,14.36
22500.00,14.57
23000.00,14.20
23500.00,15.04
24000.00,14.66
24500.00,13.97
25000.00,13.39
25500.00,13.16
26000.00,12.75
26500.00,13.21
27000.00,12.51
27500.00,12.55
28000.00,12.55
28500.00,13.07
29000.00,12.18
29500.00,11.30
30000.00,11.20
30500.00,11.92
31000.00,11.91
31500.00,11.40
32000.00,11.17
32500.00,10.74
33000.00,10.58
33500.00,10.04
34000.00,10.05
34500.00,9.80
35000.00,9.95

[TABLE_7_ALIVE_NODES]
Round,AliveNodes
50.00,300
100.00,300
150.00,300
200.00,300
250.00,300
300.00,300
350.00,300
400.00,298
450.00,297
500.00,295
550.00,295
600.00,293
650.00,293
700.00,291
750.00,289
800.00,287
850.00,286
900.00,283
950.00,282
1000.00,280
1050.00,276
1100.00,270
1150.00,266
1200.00,263
1250.00,256
1300.00,255
1350.00,251
1400.00,247
1450.00,239
1500.00,235
1550.00,230
1600.00,222
1650.00,210
1700.00,203
1750.00,198
1800.00,196
1850.00,189
1900.00,181
1950.00,176
2000.00,168
2050.00,164
2100.00,156
2150.00,152
2200.00,145
2250.00,139
2300.00,132
2350.00,125
2400.00,117
2450.00,110
2500.00,105
2550.00,101
2600.00,97
2650.00,90
2700.00,85
2750.00,82
2800.00,82
2850.00,78
2900.00,73
2950.00,65
3000.00,63
3050.00,60
3100.00,58
3150.00,50
3200.00,48
3250.00,45
3300.00,42
3350.00,39
3400.00,38
3450.00,36
3500.00,34

[TABLE_8_DEAD_NODES]
Round,DeadNodes
50.00,0
100.00,0
150.00,0
200.00,0
250.00,0
300.00,0
350.00,0
400.00,2
450.00,3
500.00,5
550.00,5
600.00,7
650.00,7
700.00,9
750.00,11
800.00,13
850.00,14
900.00,17
950.00,18
1000.00,20
1050.00,24
1100.00,30
1150.00,34
1200.00,37
1250.00,44
1300.00,45
1350.00,49
1400.00,53
1450.00,61
1500.00,65
1550.00,70
1600.00,78
1650.00,90
1700.00,97
1750.00,102
1800.00,104
1850.00,111
1900.00,119
1950.00,124
2000.00,132
2050.00,136
2100.00,144
2150.00,148
2200.00,155
2250.00,161
2300.00,168
2350.00,175
2400.00,183
2450.00,190
2500.00,195
2550.00,199
2600.00,203
2650.00,210
2700.00,215
2750.00,218
2800.00,218
2850.00,222
2900.00,227
2950.00,235
3000.00,237
3050.00,240
3100.00,242
3150.00,250
3200.00,252
3250.00,255
3300.00,258
3350.00,261
3400.00,262
3450.00,264
3500.00,266

[TABLE_RL_METRICS]
Round,RL_Steps,Fed_Rounds
50.00,3000,0
100.00,6000,0
150.00,9000,0
200.00,12000,0
250.00,15000,0
300.00,18000,0
350.00,21000,0
400.00,23998,0
450.00,26976,0
500.00,29939,0
550.00,32889,0
600.00,35830,0
650.00,38760,0
700.00,41673,0
750.00,44568,0
800.00,47446,0
850.00,50314,0
900.00,53160,0
950.00,55982,0
1000.00,58801,0
1050.00,61591,0
1100.00,64322,0
1150.00,67007,0
1200.00,69652,0
1250.00,72245,0
1300.00,74797,0
1350.00,77331,0
1400.00,79830,0
1450.00,82263,0
1500.00,84629,0
1550.00,86963,0
1600.00,89237,0
1650.00,91412,0
1700.00,93490,0
1750.00,95502,0
1800.00,97474,0
1850.00,99408,0
1900.00,101275,0
1950.00,103065,0
2000.00,104799,0
2050.00,106458,0
2100.00,108063,0
2150.00,109591,0
2200.00,111077,0
2250.00,112480,0
2300.00,113829,0
2350.00,115100,0
2400.00,116299,0
2450.00,117422,0
2500.00,118478,0
2550.00,119496,0
2600.00,120459,0
2650.00,121358,0
2700.00,122181,0
2750.00,122959,0
2800.00,123719,0
2850.00,124466,0
2900.00,125169,0
2950.00,125807,0
3000.00,126388,0
3050.00,126950,0
3100.00,127467,0
3150.00,127941,0
3200.00,128348,0
3250.00,128724,0
3300.00,129065,0
3350.00,129382,0
3400.00,129679,0
3450.00,129959,0
3500.00,130220,0
