# FDQN-TE+ Comparison Metrics (vs Article) - Énergie en Joules
# Tables: 3 (Energy), 4 (Lifetime), 5 (PDR), 6 (Delay), 7-8 (Alive/Dead Nodes)

[SUMMARY]
Metric,Value,Unit
FND (First Node Death),797,s
HND (Half Node Death),2717,s
LND (90% Node Death),0,s
Total Rounds,70,rounds
Average PDR RL,99.3131,%
PDR RL pre-FND (stable phase),99.8994,%
Average PDR NS-3,99.9956,%
Average End-to-End Delay,10.9704,ms
Total Energy Consumed,111.103,J

[TABLE_3_ENERGY_CONSUMPTION_J]
Round,EnergyConsumed_J
50,2.222093
100.000000,4.444185
150.000000,6.540491
200.000000,8.637735
250.000000,11.276987
300.000000,13.916240
350.000000,16.227977
400.000000,18.539714
450.000000,20.281940
500.000000,22.023491
550.000000,24.349102
600.000000,26.677401
650.000000,28.758173
700.000000,30.838946
750.000000,33.057815
800.000000,35.264882
850.000000,37.661863
900.000000,40.058843
950.000000,42.379386
1000.000000,44.681864
1050.000000,47.009573
1100.000000,49.337282
1150.000000,51.430192
1200.000000,53.523102
1250.000000,55.663816
1300.000000,57.676371
1350.000000,59.860045
1400.000000,61.998806
1450.000000,64.081259
1500.000000,66.062987
1550.000000,68.011774
1600.000000,69.836880
1650.000000,71.595900
1700.000000,73.280909
1750.000000,75.067888
1800.000000,76.734948
1850.000000,78.327122
1900.000000,79.903256
1950.000000,81.510428
2000.000000,83.098437
2050.000000,84.678320
2100.000000,86.151471
2150.000000,87.625064
2200.000000,89.077908
2250.000000,90.458929
2300.000000,91.696701
2350.000000,92.931602
2400.000000,94.033502
2450.000000,95.179129
2500.000000,96.224008
2550.000000,97.100452
2600.000000,97.967715
2650.000000,99.060336
2700.000000,100.089912
2750.000000,101.091144
2800.000000,101.965795
2850.000000,102.840779
2900.000000,103.660558
2950.000000,104.323066
3000.000000,104.978433
3050.000000,105.758548
3100.000000,106.534453
3150.000000,107.142372
3200.000000,107.707174
3250.000000,108.303732
3300.000000,108.897220
3350.000000,109.470937
3400.000000,110.027136
3450.000000,110.575591
3500.000000,111.103405

[TABLE_4_NETWORK_LIFETIME]
Round,AliveNodes,DeadNodes,Time_s
50.000000,100,0,50.000000
100.000000,100,0,100.000000
150.000000,100,0,150.000000
200.000000,100,0,200.000000
250.000000,100,0,250.000000
300.000000,100,0,300.000000
350.000000,100,0,350.000000
400.000000,100,0,400.000000
450.000000,100,0,450.000000
500.000000,100,0,500.000000
550.000000,100,0,550.000000
600.000000,100,0,600.000000
650.000000,100,0,650.000000
700.000000,100,0,700.000000
750.000000,100,0,750.000000
800.000000,99,1,800.000000
850.000000,99,1,850.000000
900.000000,99,1,900.000000
950.000000,99,1,950.000000
1000.000000,97,3,1000.000000
1050.000000,97,3,1050.000000
1100.000000,97,3,1100.000000
1150.000000,97,3,1150.000000
1200.000000,97,3,1200.000000
1250.000000,96,4,1250.000000
1300.000000,95,5,1300.000000
1350.000000,95,5,1350.000000
1400.000000,94,6,1400.000000
1450.000000,93,7,1450.000000
1500.000000,92,8,1500.000000
1550.000000,89,11,1550.000000
1600.000000,87,13,1600.000000
1650.000000,85,15,1650.000000
1700.000000,85,15,1700.000000
1750.000000,83,17,1750.000000
1800.000000,81,19,1800.000000
1850.000000,80,20,1850.000000
1900.000000,80,20,1900.000000
1950.000000,79,21,1950.000000
2000.000000,78,22,2000.000000
2050.000000,76,24,2050.000000
2100.000000,75,25,2100.000000
2150.000000,74,26,2150.000000
2200.000000,73,27,2200.000000
2250.000000,68,32,2250.000000
2300.000000,67,33,2300.000000
2350.000000,63,37,2350.000000
2400.000000,61,39,2400.000000
2450.000000,60,40,2450.000000
2500.000000,57,43,2500.000000
2550.000000,56,44,2550.000000
2600.000000,56,44,2600.000000
2650.000000,55,45,2650.000000
2700.000000,52,48,2700.000000
2750.000000,47,53,2750.000000
2800.000000,45,55,2800.000000
2850.000000,44,56,2850.000000
2900.000000,43,57,2900.000000
2950.000000,42,58,2950.000000
3000.000000,42,58,3000.000000
3050.000000,42,58,3050.000000
3100.000000,40,60,3100.000000
3150.000000,38,62,3150.000000
3200.000000,38,62,3200.000000
3250.000000,37,63,3250.000000
3300.000000,37,63,3300.000000
3350.000000,36,64,3350.000000
3400.000000,36,64,3400.000000
3450.000000,34,66,3450.000000
3500.000000,33,67,3500.000000

[TABLE_5_PDR_PERCENT]
Round,PDR_RL_pct,PDR_NS3_pct
50.000000,99.70,100.00
100.00,99.75,100.00
150.00,99.83,100.00
200.00,99.88,100.00
250.00,99.90,100.00
300.00,99.92,100.00
350.00,99.93,100.00
400.00,99.94,100.00
450.00,99.92,100.00
500.00,99.90,100.00
550.00,99.91,100.00
600.00,99.92,100.00
650.00,99.92,100.00
700.00,99.91,100.00
750.00,99.90,99.99
800.00,99.88,99.99
850.00,99.88,99.99
900.00,99.89,99.99
950.00,99.88,99.99
1000.00,99.84,99.99
1050.00,99.85,99.99
1100.00,99.85,99.99
1150.00,99.86,99.99
1200.00,99.87,99.99
1250.00,99.84,99.99
1300.00,99.73,99.99
1350.00,99.74,99.99
1400.00,99.73,99.99
1450.00,99.66,99.99
1500.00,99.57,100.00
1550.00,99.52,100.00
1600.00,99.43,100.00
1650.00,99.43,100.00
1700.00,99.43,100.00
1750.00,99.37,99.99
1800.00,99.25,99.99
1850.00,99.21,99.99
1900.00,99.16,99.99
1950.00,99.17,99.99
2000.00,99.08,99.99
2050.00,99.09,99.99
2100.00,99.11,99.99
2150.00,99.12,99.99
2200.00,99.08,99.99
2250.00,99.03,99.99
2300.00,98.86,99.99
2350.00,98.85,99.99
2400.00,98.82,99.99
2450.00,98.83,99.99
2500.00,98.75,99.99
2550.00,98.75,99.99
2600.00,98.74,99.99
2650.00,98.72,99.99
2700.00,98.67,99.99
2750.00,98.67,100.00
2800.00,98.68,100.00
2850.00,98.69,100.00
2900.00,98.68,100.00
2950.00,98.68,100.00
3000.00,98.67,100.00
3050.00,98.68,100.00
3100.00,98.69,100.00
3150.00,98.69,100.00
3200.00,98.70,100.00
3250.00,98.71,100.00
3300.00,98.72,100.00
3350.00,98.72,100.00
3400.00,98.73,100.00
3450.00,98.74,100.00
3500.00,98.74,100.00

[TABLE_6_END_TO_END_DELAY_ms]
Round,Delay_ms
500.00,12.61
1000.00,12.61
1500.00,12.42
2000.00,12.42
2500.00,12.22
3000.00,12.22
3500.00,12.71
4000.00,12.71
4500.00,12.95
5000.00,12.95
5500.00,12.32
6000.00,12.32
6500.00,12.18
7000.00,12.18
7500.00,12.56
8000.00,12.35
8500.00,12.15
9000.00,12.15
9500.00,12.93
10000.00,12.65
10500.00,12.10
11000.00,12.10
11500.00,12.20
12000.00,12.20
12500.00,12.13
13000.00,12.05
13500.00,12.51
14000.00,12.44
14500.00,12.37
15000.00,12.40
15500.00,11.73
16000.00,11.72
16500.00,11.82
17000.00,11.82
17500.00,11.53
18000.00,11.27
18500.00,11.78
19000.00,11.78
19500.00,11.19
20000.00,10.90
20500.00,11.06
21000.00,11.02
21500.00,11.23
22000.00,10.99
22500.00,11.37
23000.00,11.32
23500.00,11.12
24000.00,10.93
24500.00,10.23
25000.00,9.83
25500.00,10.53
26000.00,10.53
26500.00,10.02
27000.00,9.76
27500.00,8.64
28000.00,8.59
28500.00,8.46
29000.00,8.43
29500.00,9.32
30000.00,9.32
30500.00,7.82
31000.00,7.73
31500.00,7.88
32000.00,7.88
32500.00,7.97
33000.00,7.97
33500.00,7.65
34000.00,7.65
34500.00,7.53
35000.00,7.47

[TABLE_7_ALIVE_NODES]
Round,AliveNodes
50.00,100
100.00,100
150.00,100
200.00,100
250.00,100
300.00,100
350.00,100
400.00,100
450.00,100
500.00,100
550.00,100
600.00,100
650.00,100
700.00,100
750.00,100
800.00,99
850.00,99
900.00,99
950.00,99
1000.00,97
1050.00,97
1100.00,97
1150.00,97
1200.00,97
1250.00,96
1300.00,95
1350.00,95
1400.00,94
1450.00,93
1500.00,92
1550.00,89
1600.00,87
1650.00,85
1700.00,85
1750.00,83
1800.00,81
1850.00,80
1900.00,80
1950.00,79
2000.00,78
2050.00,76
2100.00,75
2150.00,74
2200.00,73
2250.00,68
2300.00,67
2350.00,63
2400.00,61
2450.00,60
2500.00,57
2550.00,56
2600.00,56
2650.00,55
2700.00,52
2750.00,47
2800.00,45
2850.00,44
2900.00,43
2950.00,42
3000.00,42
3050.00,42
3100.00,40
3150.00,38
3200.00,38
3250.00,37
3300.00,37
3350.00,36
3400.00,36
3450.00,34
3500.00,33

[TABLE_8_DEAD_NODES]
Round,DeadNodes
50.00,0
100.00,0
150.00,0
200.00,0
250.00,0
300.00,0
350.00,0
400.00,0
450.00,0
500.00,0
550.00,0
600.00,0
650.00,0
700.00,0
750.00,0
800.00,1
850.00,1
900.00,1
950.00,1
1000.00,3
1050.00,3
1100.00,3
1150.00,3
1200.00,3
1250.00,4
1300.00,5
1350.00,5
1400.00,6
1450.00,7
1500.00,8
1550.00,11
1600.00,13
1650.00,15
1700.00,15
1750.00,17
1800.00,19
1850.00,20
1900.00,20
1950.00,21
2000.00,22
2050.00,24
2100.00,25
2150.00,26
2200.00,27
2250.00,32
2300.00,33
2350.00,37
2400.00,39
2450.00,40
2500.00,43
2550.00,44
2600.00,44
2650.00,45
2700.00,48
2750.00,53
2800.00,55
2850.00,56
2900.00,57
2950.00,58
3000.00,58
3050.00,58
3100.00,60
3150.00,62
3200.00,62
3250.00,63
3300.00,63
3350.00,64
3400.00,64
3450.00,66
3500.00,67

[TABLE_RL_METRICS]
Round,RL_Steps,Fed_Rounds
50.00,1000,0
100.00,2000,0
150.00,3000,0
200.00,4000,0
250.00,5000,0
300.00,6000,0
350.00,7000,0
400.00,8000,0
450.00,9000,0
500.00,10000,0
550.00,11000,0
600.00,12000,0
650.00,13000,0
700.00,14000,0
750.00,15000,0
800.00,16000,0
850.00,16990,0
900.00,17980,0
950.00,18970,0
1000.00,19958,0
1050.00,20928,0
1100.00,21898,0
1150.00,22868,0
1200.00,23838,0
1250.00,24805,0
1300.00,25756,0
1350.00,26706,0
1400.00,27652,0
1450.00,28587,0
1500.00,29508,0
1550.00,30413,0
1600.00,31294,0
1650.00,32157,0
1700.00,33007,0
1750.00,33844,0
1800.00,34665,0
1850.00,35469,0
1900.00,36269,0
1950.00,37068,0
2000.00,37857,0
2050.00,38633,0
2100.00,39386,0
2150.00,40128,0
2200.00,40866,0
2250.00,41573,0
2300.00,42245,0
2350.00,42877,0
2400.00,43487,0
2450.00,44084,0
2500.00,44654,0
2550.00,45207,0
2600.00,45757,0
2650.00,46301,0
2700.00,46822,0
2750.00,47311,0
2800.00,47769,0
2850.00,48207,0
2900.00,48632,0
2950.00,49049,0
3000.00,49459,0
3050.00,49869,0
3100.00,50279,0
3150.00,50660,0
3200.00,51030,0
3250.00,51391,0
3300.00,51751,0
3350.00,52106,0
3400.00,52456,0
3450.00,52794,0
3500.00,53123,0
