# FDQN-TE+ Comparison Metrics (vs Article) - Énergie en Joules
# Tables: 3 (Energy), 4 (Lifetime), 5 (PDR), 6 (Delay), 7-8 (Alive/Dead Nodes)

[SUMMARY]
Metric,Value,Unit
FND (First Node Death),1187,s
HND (Half Node Death),2997,s
LND (90% Node Death),0,s
Total Rounds,70,rounds
Average PDR RL,99.8595,%
PDR RL pre-FND (stable phase),100,%
Average PDR NS-3,100,%
Average End-to-End Delay,8.09774,ms
Total Energy Consumed,52.8328,J

[TABLE_3_ENERGY_CONSUMPTION_J]
Round,EnergyConsumed_J
50,1.010780
100.000000,2.021560
150.000000,2.976172
200.000000,3.930783
250.000000,4.965108
300.000000,5.999433
350.000000,6.888242
400.000000,7.777050
450.000000,8.792716
500.000000,9.808381
550.000000,10.857395
600.000000,11.906410
650.000000,12.954235
700.000000,14.002061
750.000000,14.952573
800.000000,15.903086
850.000000,16.784187
900.000000,17.665288
950.000000,18.622592
1000.000000,19.579895
1050.000000,20.641686
1100.000000,21.703477
1150.000000,22.579539
1200.000000,23.440949
1250.000000,24.489898
1300.000000,25.538848
1350.000000,26.502372
1400.000000,27.465896
1450.000000,28.409676
1500.000000,29.342653
1550.000000,30.252361
1600.000000,31.162069
1650.000000,32.164333
1700.000000,33.166596
1750.000000,34.135487
1800.000000,35.087000
1850.000000,35.813486
1900.000000,36.536621
1950.000000,37.340505
2000.000000,38.143091
2050.000000,38.820308
2100.000000,39.487923
2150.000000,40.234965
2200.000000,40.961623
2250.000000,41.601093
2300.000000,42.211195
2350.000000,42.811515
2400.000000,43.398065
2450.000000,44.018843
2500.000000,44.609718
2550.000000,45.204034
2600.000000,45.787735
2650.000000,46.348318
2700.000000,46.849793
2750.000000,47.387951
2800.000000,47.917664
2850.000000,48.427147
2900.000000,48.936123
2950.000000,49.422306
3000.000000,49.856929
3050.000000,50.230771
3100.000000,50.584898
3150.000000,50.937677
3200.000000,51.267832
3250.000000,51.582971
3300.000000,51.845263
3350.000000,52.107556
3400.000000,52.369848
3450.000000,52.610574
3500.000000,52.832776

[TABLE_4_NETWORK_LIFETIME]
Round,AliveNodes,DeadNodes,Time_s
50.000000,50,0,50.000000
100.000000,50,0,100.000000
150.000000,50,0,150.000000
200.000000,50,0,200.000000
250.000000,50,0,250.000000
300.000000,50,0,300.000000
350.000000,50,0,350.000000
400.000000,50,0,400.000000
450.000000,50,0,450.000000
500.000000,50,0,500.000000
550.000000,50,0,550.000000
600.000000,50,0,600.000000
650.000000,50,0,650.000000
700.000000,50,0,700.000000
750.000000,50,0,750.000000
800.000000,50,0,800.000000
850.000000,50,0,850.000000
900.000000,50,0,900.000000
950.000000,50,0,950.000000
1000.000000,50,0,1000.000000
1050.000000,50,0,1050.000000
1100.000000,50,0,1100.000000
1150.000000,50,0,1150.000000
1200.000000,49,1,1200.000000
1250.000000,49,1,1250.000000
1300.000000,49,1,1300.000000
1350.000000,49,1,1350.000000
1400.000000,49,1,1400.000000
1450.000000,49,1,1450.000000
1500.000000,48,2,1500.000000
1550.000000,48,2,1550.000000
1600.000000,48,2,1600.000000
1650.000000,48,2,1650.000000
1700.000000,48,2,1700.000000
1750.000000,48,2,1750.000000
1800.000000,46,4,1800.000000
1850.000000,46,4,1850.000000
1900.000000,45,5,1900.000000
1950.000000,45,5,1950.000000
2000.000000,44,6,2000.000000
2050.000000,43,7,2050.000000
2100.000000,43,7,2100.000000
2150.000000,40,10,2150.000000
2200.000000,40,10,2200.000000
2250.000000,39,11,2250.000000
2300.000000,38,12,2300.000000
2350.000000,37,13,2350.000000
2400.000000,37,13,2400.000000
2450.000000,36,14,2450.000000
2500.000000,36,14,2500.000000
2550.000000,34,16,2550.000000
2600.000000,34,16,2600.000000
2650.000000,33,17,2650.000000
2700.000000,32,18,2700.000000
2750.000000,32,18,2750.000000
2800.000000,31,19,2800.000000
2850.000000,30,20,2850.000000
2900.000000,30,20,2900.000000
2950.000000,28,22,2950.000000
3000.000000,25,25,3000.000000
3050.000000,24,26,3050.000000
3100.000000,24,26,3100.000000
3150.000000,23,27,3150.000000
3200.000000,23,27,3200.000000
3250.000000,20,30,3250.000000
3300.000000,20,30,3300.000000
3350.000000,20,30,3350.000000
3400.000000,20,30,3400.000000
3450.000000,18,32,3450.000000
3500.000000,18,32,3500.000000

[TABLE_5_PDR_PERCENT]
Round,PDR_RL_pct,PDR_NS3_pct
50.000000,100.00,100.00
100.00,100.00,100.00
150.00,100.00,100.00
200.00,100.00,100.00
250.00,100.00,100.00
300.00,100.00,100.00
350.00,100.00,100.00
400.00,100.00,100.00
450.00,100.00,100.00
500.00,100.00,100.00
550.00,100.00,100.00
600.00,100.00,100.00
650.00,100.00,100.00
700.00,100.00,100.00
750.00,100.00,100.00
800.00,100.00,100.00
850.00,100.00,100.00
900.00,100.00,100.00
950.00,100.00,100.00
1000.00,100.00,100.00
1050.00,100.00,100.00
1100.00,100.00,100.00
1150.00,100.00,100.00
1200.00,99.99,100.00
1250.00,99.99,100.00
1300.00,99.99,100.00
1350.00,99.99,100.00
1400.00,99.99,100.00
1450.00,99.99,100.00
1500.00,99.97,100.00
1550.00,99.97,100.00
1600.00,99.97,100.00
1650.00,99.97,100.00
1700.00,99.97,100.00
1750.00,99.97,100.00
1800.00,99.96,100.00
1850.00,99.96,100.00
1900.00,99.94,100.00
1950.00,99.94,100.00
2000.00,99.94,100.00
2050.00,99.94,100.00
2100.00,99.94,100.00
2150.00,99.92,100.00
2200.00,99.92,100.00
2250.00,99.90,100.00
2300.00,99.81,100.00
2350.00,99.81,100.00
2400.00,99.82,100.00
2450.00,99.81,100.00
2500.00,99.77,100.00
2550.00,99.71,100.00
2600.00,99.63,100.00
2650.00,99.63,100.00
2700.00,99.63,100.00
2750.00,99.64,100.00
2800.00,99.64,100.00
2850.00,99.62,100.00
2900.00,99.58,100.00
2950.00,99.58,100.00
3000.00,99.57,100.00
3050.00,99.57,100.00
3100.00,99.58,100.00
3150.00,99.58,100.00
3200.00,99.58,100.00
3250.00,99.57,100.00
3300.00,99.58,100.00
3350.00,99.58,100.00
3400.00,99.58,100.00
3450.00,99.58,100.00
3500.00,99.58,100.00

[TABLE_6_END_TO_END_DELAY_ms]
Round,Delay_ms
500.00,9.08
1000.00,9.08
1500.00,9.37
2000.00,9.37
2500.00,8.99
3000.00,8.99
3500.00,8.99
4000.00,8.99
4500.00,10.15
5000.00,10.15
5500.00,8.99
6000.00,8.99
6500.00,9.08
7000.00,9.08
7500.00,9.57
8000.00,9.57
8500.00,9.47
9000.00,9.47
9500.00,9.18
10000.00,9.18
10500.00,8.99
11000.00,8.99
11500.00,9.86
12000.00,9.86
12500.00,9.07
13000.00,9.07
13500.00,9.66
14000.00,9.66
14500.00,9.57
15000.00,9.46
15500.00,9.06
16000.00,9.06
16500.00,8.96
17000.00,8.96
17500.00,8.86
18000.00,8.82
18500.00,9.14
19000.00,8.91
19500.00,9.23
20000.00,9.11
20500.00,9.10
21000.00,9.10
21500.00,7.73
22000.00,7.73
22500.00,8.18
23000.00,8.01
23500.00,7.97
24000.00,7.97
24500.00,7.38
25000.00,7.38
25500.00,7.25
26000.00,7.25
26500.00,6.88
27000.00,6.79
27500.00,6.95
28000.00,6.86
28500.00,6.12
29000.00,6.12
29500.00,6.04
30000.00,5.61
30500.00,5.44
31000.00,5.44
31500.00,5.25
32000.00,5.25
32500.00,4.83
33000.00,4.83
33500.00,4.83
34000.00,4.83
34500.00,4.83
35000.00,4.83

[TABLE_7_ALIVE_NODES]
Round,AliveNodes
50.00,50
100.00,50
150.00,50
200.00,50
250.00,50
300.00,50
350.00,50
400.00,50
450.00,50
500.00,50
550.00,50
600.00,50
650.00,50
700.00,50
750.00,50
800.00,50
850.00,50
900.00,50
950.00,50
1000.00,50
1050.00,50
1100.00,50
1150.00,50
1200.00,49
1250.00,49
1300.00,49
1350.00,49
1400.00,49
1450.00,49
1500.00,48
1550.00,48
1600.00,48
1650.00,48
1700.00,48
1750.00,48
1800.00,46
1850.00,46
1900.00,45
1950.00,45
2000.00,44
2050.00,43
2100.00,43
2150.00,40
2200.00,40
2250.00,39
2300.00,38
2350.00,37
2400.00,37
2450.00,36
2500.00,36
2550.00,34
2600.00,34
2650.00,33
2700.00,32
2750.00,32
2800.00,31
2850.00,30
2900.00,30
2950.00,28
3000.00,25
3050.00,24
3100.00,24
3150.00,23
3200.00,23
3250.00,20
3300.00,20
3350.00,20
3400.00,20
3450.00,18
3500.00,18

[TABLE_8_DEAD_NODES]
Round,DeadNodes
50.00,0
100.00,0
150.00,0
200.00,0
250.00,0
300.00,0
350.00,0
400.00,0
450.00,0
500.00,0
550.00,0
600.00,0
650.00,0
700.00,0
750.00,0
800.00,0
850.00,0
900.00,0
950.00,0
1000.00,0
1050.00,0
1100.00,0
1150.00,0
1200.00,1
1250.00,1
1300.00,1
1350.00,1
1400.00,1
1450.00,1
1500.00,2
1550.00,2
1600.00,2
1650.00,2
1700.00,2
1750.00,2
1800.00,4
1850.00,4
1900.00,5
1950.00,5
2000.00,6
2050.00,7
2100.00,7
2150.00,10
2200.00,10
2250.00,11
2300.00,12
2350.00,13
2400.00,13
2450.00,14
2500.00,14
2550.00,16
2600.00,16
2650.00,17
2700.00,18
2750.00,18
2800.00,19
2850.00,20
2900.00,20
2950.00,22
3000.00,25
3050.00,26
3100.00,26
3150.00,27
3200.00,27
3250.00,30
3300.00,30
3350.00,30
3400.00,30
3450.00,32
3500.00,32

[TABLE_RL_METRICS]
Round,RL_Steps,Fed_Rounds
50.00,500,0
100.00,1000,0
150.00,1500,0
200.00,2000,0
250.00,2500,0
300.00,3000,0
350.00,3500,0
400.00,4000,0
450.00,4500,0
500.00,5000,0
550.00,5500,0
600.00,6000,0
650.00,6500,0
700.00,7000,0
750.00,7500,0
800.00,8000,0
850.00,8500,0
900.00,9000,0
950.00,9500,0
1000.00,10000,0
1050.00,10500,0
1100.00,11000,0
1150.00,11500,0
1200.00,11998,0
1250.00,12488,0
1300.00,12978,0
1350.00,13468,0
1400.00,13958,0
1450.00,14448,0
1500.00,14936,0
1550.00,15416,0
1600.00,15896,0
1650.00,16376,0
1700.00,16856,0
1750.00,17336,0
1800.00,17813,0
1850.00,18273,0
1900.00,18732,0
1950.00,19182,0
2000.00,19631,0
2050.00,20064,0
2100.00,20494,0
2150.00,20901,0
2200.00,21301,0
2250.00,21697,0
2300.00,22080,0
2350.00,22453,0
2400.00,22823,0
2450.00,23193,0
2500.00,23553,0
2550.00,23900,0
2600.00,24240,0
2650.00,24579,0
2700.00,24901,0
2750.00,25221,0
2800.00,25538,0
2850.00,25843,0
2900.00,26143,0
2950.00,26434,0
3000.00,26705,0
3050.00,26952,0
3100.00,27192,0
3150.00,27432,0
3200.00,27662,0
3250.00,27886,0
3300.00,28086,0
3350.00,28286,0
3400.00,28486,0
3450.00,28676,0
3500.00,28856,0
