# FDQN-TE+ Comparison Metrics (vs Article) - Énergie en Joules
# Tables: 3 (Energy), 4 (Lifetime), 5 (PDR), 6 (Delay), 7-8 (Alive/Dead Nodes)

[SUMMARY]
Metric,Value,Unit
FND (First Node Death),587,s
HND (Half Node Death),2292,s
LND (90% Node Death),0,s
Total Rounds,70,rounds
Average PDR RL,97.365,%
PDR RL pre-FND (stable phase),99.6685,%
Average PDR NS-3,100,%
Average End-to-End Delay,14.4991,ms
Total Energy Consumed,232.292,J

[TABLE_3_ENERGY_CONSUMPTION_J]
Round,EnergyConsumed_J
50,4.960490
100.000000,9.922977
150.000000,15.085034
200.000000,20.239647
250.000000,25.432366
300.000000,30.619823
350.000000,35.860335
400.000000,41.098166
450.000000,45.887715
500.000000,50.679014
550.000000,56.508168
600.000000,62.305235
650.000000,67.368562
700.000000,72.429921
750.000000,77.210366
800.000000,81.988062
850.000000,87.241427
900.000000,92.421860
950.000000,97.725474
1000.000000,102.870462
1050.000000,107.505677
1100.000000,111.992991
1150.000000,117.425039
1200.000000,122.601776
1250.000000,127.512586
1300.000000,132.196704
1350.000000,136.860277
1400.000000,141.265176
1450.000000,145.310095
1500.000000,149.299926
1550.000000,153.931774
1600.000000,158.267519
1650.000000,161.567076
1700.000000,164.766496
1750.000000,168.385812
1800.000000,171.769917
1850.000000,175.838969
1900.000000,179.401580
1950.000000,182.584503
2000.000000,185.477361
2050.000000,188.445475
2100.000000,191.085583
2150.000000,194.149282
2200.000000,196.997726
2250.000000,199.811192
2300.000000,202.269606
2350.000000,205.071342
2400.000000,207.712355
2450.000000,209.937010
2500.000000,211.773562
2550.000000,214.000692
2600.000000,215.994358
2650.000000,217.842107
2700.000000,219.297210
2750.000000,220.868522
2800.000000,222.130486
2850.000000,223.562055
2900.000000,224.768576
2950.000000,225.609744
3000.000000,226.378904
3050.000000,227.343347
3100.000000,228.183371
3150.000000,228.862782
3200.000000,229.474088
3250.000000,230.136255
3300.000000,230.671494
3350.000000,231.163405
3400.000000,231.573311
3450.000000,231.940432
3500.000000,232.292434

[TABLE_4_NETWORK_LIFETIME]
Round,AliveNodes,DeadNodes,Time_s
50.000000,200,0,50.000000
100.000000,200,0,100.000000
150.000000,200,0,150.000000
200.000000,200,0,200.000000
250.000000,200,0,250.000000
300.000000,200,0,300.000000
350.000000,200,0,350.000000
400.000000,200,0,400.000000
450.000000,200,0,450.000000
500.000000,200,0,500.000000
550.000000,200,0,550.000000
600.000000,199,1,600.000000
650.000000,199,1,650.000000
700.000000,199,1,700.000000
750.000000,199,1,750.000000
800.000000,199,1,800.000000
850.000000,199,1,850.000000
900.000000,197,3,900.000000
950.000000,195,5,950.000000
1000.000000,193,7,1000.000000
1050.000000,192,8,1050.000000
1100.000000,190,10,1100.000000
1150.000000,187,13,1150.000000
1200.000000,185,15,1200.000000
1250.000000,183,17,1250.000000
1300.000000,180,20,1300.000000
1350.000000,177,23,1350.000000
1400.000000,174,26,1400.000000
1450.000000,171,29,1450.000000
1500.000000,168,32,1500.000000
1550.000000,165,35,1550.000000
1600.000000,158,42,1600.000000
1650.000000,157,43,1650.000000
1700.000000,154,46,1700.000000
1750.000000,153,47,1750.000000
1800.000000,150,50,1800.000000
1850.000000,142,58,1850.000000
1900.000000,137,63,1900.000000
1950.000000,132,68,1950.000000
2000.000000,128,72,2000.000000
2050.000000,123,77,2050.000000
2100.000000,120,80,2100.000000
2150.000000,113,87,2150.000000
2200.000000,111,89,2200.000000
2250.000000,103,97,2250.000000
2300.000000,100,100,2300.000000
2350.000000,98,102,2350.000000
2400.000000,96,104,2400.000000
2450.000000,89,111,2450.000000
2500.000000,86,114,2500.000000
2550.000000,82,118,2550.000000
2600.000000,80,120,2600.000000
2650.000000,74,126,2650.000000
2700.000000,71,129,2700.000000
2750.000000,63,137,2750.000000
2800.000000,60,140,2800.000000
2850.000000,57,143,2850.000000
2900.000000,50,150,2900.000000
2950.000000,46,154,2950.000000
3000.000000,46,154,3000.000000
3050.000000,46,154,3050.000000
3100.000000,43,157,3100.000000
3150.000000,41,159,3150.000000
3200.000000,40,160,3200.000000
3250.000000,36,164,3250.000000
3300.000000,36,164,3300.000000
3350.000000,32,168,3350.000000
3400.000000,30,170,3400.000000
3450.000000,28,172,3450.000000
3500.000000,28,172,3500.000000

[TABLE_5_PDR_PERCENT]
Round,PDR_RL_pct,PDR_NS3_pct
50.000000,99.85,100.00
100.00,99.88,100.00
150.00,99.92,100.00
200.00,99.94,100.00
250.00,99.93,100.00
300.00,99.94,100.00
350.00,99.89,100.00
400.00,99.84,100.00
450.00,99.77,100.00
500.00,99.70,100.00
550.00,99.68,100.00
600.00,99.62,100.00
650.00,99.58,100.00
700.00,99.54,100.00
750.00,99.47,100.00
800.00,99.40,100.00
850.00,99.36,100.00
900.00,99.17,100.00
950.00,99.20,100.00
1000.00,99.05,100.00
1050.00,98.99,100.00
1100.00,98.70,100.00
1150.00,98.60,100.00
1200.00,98.24,100.00
1250.00,98.24,100.00
1300.00,97.96,100.00
1350.00,97.92,100.00
1400.00,97.64,100.00
1450.00,97.53,100.00
1500.00,97.22,100.00
1550.00,97.20,100.00
1600.00,97.05,100.00
1650.00,97.09,100.00
1700.00,96.82,100.00
1750.00,96.85,100.00
1800.00,96.67,100.00
1850.00,96.67,100.00
1900.00,96.44,100.00
1950.00,96.45,100.00
2000.00,96.27,100.00
2050.00,96.25,100.00
2100.00,96.13,100.00
2150.00,96.11,100.00
2200.00,95.99,100.00
2250.00,95.99,100.00
2300.00,95.94,100.00
2350.00,95.98,100.00
2400.00,95.96,100.00
2450.00,95.94,100.00
2500.00,95.79,100.00
2550.00,95.80,100.00
2600.00,95.75,100.00
2650.00,95.77,100.00
2700.00,95.73,100.00
2750.00,95.73,100.00
2800.00,95.71,100.00
2850.00,95.71,100.00
2900.00,95.67,100.00
2950.00,95.66,100.00
3000.00,95.66,100.00
3050.00,95.68,100.00
3100.00,95.68,100.00
3150.00,95.69,100.00
3200.00,95.69,100.00
3250.00,95.69,100.00
3300.00,95.70,100.00
3350.00,95.70,100.00
3400.00,95.71,100.00
3450.00,95.72,100.00
3500.00,95.73,100.00

[TABLE_6_END_TO_END_DELAY_ms]
Round,Delay_ms
500.00,17.32
1000.00,17.32
1500.00,17.64
2000.00,17.64
2500.00,17.78
3000.00,17.78
3500.00,16.86
4000.00,16.86
4500.00,17.03
5000.00,17.03
5500.00,16.67
6000.00,16.51
6500.00,17.09
7000.00,17.09
7500.00,17.19
8000.00,17.19
8500.00,18.24
9000.00,18.08
9500.00,16.30
10000.00,16.00
10500.00,16.26
11000.00,16.00
11500.00,16.10
12000.00,15.96
12500.00,16.05
13000.00,15.76
13500.00,15.97
14000.00,15.36
14500.00,16.25
15000.00,15.50
15500.00,15.61
16000.00,14.92
16500.00,15.67
17000.00,14.78
17500.00,16.64
18000.00,15.56
18500.00,15.41
19000.00,15.06
19500.00,14.68
20000.00,14.19
20500.00,14.02
21000.00,13.65
21500.00,13.94
22000.00,13.97
22500.00,13.93
23000.00,13.72
23500.00,13.95
24000.00,13.79
24500.00,14.06
25000.00,13.09
25500.00,12.43
26000.00,12.38
26500.00,12.86
27000.00,12.79
27500.00,13.50
28000.00,13.05
28500.00,11.02
29000.00,10.53
29500.00,10.71
30000.00,10.71
30500.00,11.24
31000.00,11.01
31500.00,10.61
32000.00,10.63
32500.00,10.47
33000.00,10.47
33500.00,9.36
34000.00,9.34
34500.00,9.15
35000.00,9.15

[TABLE_7_ALIVE_NODES]
Round,AliveNodes
50.00,200
100.00,200
150.00,200
200.00,200
250.00,200
300.00,200
350.00,200
400.00,200
450.00,200
500.00,200
550.00,200
600.00,199
650.00,199
700.00,199
750.00,199
800.00,199
850.00,199
900.00,197
950.00,195
1000.00,193
1050.00,192
1100.00,190
1150.00,187
1200.00,185
1250.00,183
1300.00,180
1350.00,177
1400.00,174
1450.00,171
1500.00,168
1550.00,165
1600.00,158
1650.00,157
1700.00,154
1750.00,153
1800.00,150
1850.00,142
1900.00,137
1950.00,132
2000.00,128
2050.00,123
2100.00,120
2150.00,113
2200.00,111
2250.00,103
2300.00,100
2350.00,98
2400.00,96
2450.00,89
2500.00,86
2550.00,82
2600.00,80
2650.00,74
2700.00,71
2750.00,63
2800.00,60
2850.00,57
2900.00,50
2950.00,46
3000.00,46
3050.00,46
3100.00,43
3150.00,41
3200.00,40
3250.00,36
3300.00,36
3350.00,32
3400.00,30
3450.00,28
3500.00,28

[TABLE_8_DEAD_NODES]
Round,DeadNodes
50.00,0
100.00,0
150.00,0
200.00,0
250.00,0
300.00,0
350.00,0
400.00,0
450.00,0
500.00,0
550.00,0
600.00,1
650.00,1
700.00,1
750.00,1
800.00,1
850.00,1
900.00,3
950.00,5
1000.00,7
1050.00,8
1100.00,10
1150.00,13
1200.00,15
1250.00,17
1300.00,20
1350.00,23
1400.00,26
1450.00,29
1500.00,32
1550.00,35
1600.00,42
1650.00,43
1700.00,46
1750.00,47
1800.00,50
1850.00,58
1900.00,63
1950.00,68
2000.00,72
2050.00,77
2100.00,80
2150.00,87
2200.00,89
2250.00,97
2300.00,100
2350.00,102
2400.00,104
2450.00,111
2500.00,114
2550.00,118
2600.00,120
2650.00,126
2700.00,129
2750.00,137
2800.00,140
2850.00,143
2900.00,150
2950.00,154
3000.00,154
3050.00,154
3100.00,157
3150.00,159
3200.00,160
3250.00,164
3300.00,164
3350.00,168
3400.00,170
3450.00,172
3500.00,172

[TABLE_RL_METRICS]
Round,RL_Steps,Fed_Rounds
50.00,2000,0
100.00,4000,0
150.00,6000,0
200.00,8000,0
250.00,10000,0
300.00,12000,0
350.00,14000,0
400.00,16000,0
450.00,18000,0
500.00,20000,0
550.00,22000,0
600.00,23998,0
650.00,25988,0
700.00,27978,0
750.00,29968,0
800.00,31958,0
850.00,33948,0
900.00,35925,0
950.00,37882,0
1000.00,39822,0
1050.00,41748,0
1100.00,43658,0
1150.00,45547,0
1200.00,47408,0
1250.00,49256,0
1300.00,51070,0
1350.00,52863,0
1400.00,54626,0
1450.00,56355,0
1500.00,58059,0
1550.00,59724,0
1600.00,61365,0
1650.00,62937,0
1700.00,64491,0
1750.00,66030,0
1800.00,67543,0
1850.00,69022,0
1900.00,70426,0
1950.00,71778,0
2000.00,73085,0
2050.00,74340,0
2100.00,75559,0
2150.00,76726,0
2200.00,77856,0
2250.00,78909,0
2300.00,79908,0
2350.00,80882,0
2400.00,81834,0
2450.00,82750,0
2500.00,83592,0
2550.00,84393,0
2600.00,85147,0
2650.00,85879,0
2700.00,86547,0
2750.00,87168,0
2800.00,87735,0
2850.00,88269,0
2900.00,88752,0
2950.00,89169,0
3000.00,89569,0
3050.00,89969,0
3100.00,90349,0
3150.00,90713,0
3200.00,91061,0
3250.00,91389,0
3300.00,91679,0
3350.00,91946,0
3400.00,92186,0
3450.00,92403,0
3500.00,92613,0
