# FDQN-TE+ Comparison Metrics (vs Article) - Énergie en Joules
# Tables: 3 (Energy), 4 (Lifetime), 5 (PDR), 6 (Delay), 7-8 (Alive/Dead Nodes)

[SUMMARY]
Metric,Value,Unit
FND (First Node Death),1197,s
HND (Half Node Death),3142,s
LND (90% Node Death),0,s
Total Rounds,70,rounds
Average PDR RL,99.8298,%
PDR RL pre-FND (stable phase),100,%
Average PDR NS-3,69.1804,%
Average End-to-End Delay,8.14001,ms
Total Energy Consumed,51.7377,J

[TABLE_3_ENERGY_CONSUMPTION_J]
Round,EnergyConsumed_J
50,1.009963
100.000000,2.019926
150.000000,2.904420
200.000000,3.788914
250.000000,4.737148
300.000000,5.685382
350.000000,6.691015
400.000000,7.696648
450.000000,8.733857
500.000000,9.771066
550.000000,10.729277
600.000000,11.685712
650.000000,12.711504
700.000000,13.737296
750.000000,14.703879
800.000000,15.670462
850.000000,16.494949
900.000000,17.319437
950.000000,18.177704
1000.000000,19.035971
1050.000000,20.118364
1100.000000,21.200757
1150.000000,22.202022
1200.000000,23.199329
1250.000000,24.211217
1300.000000,25.178592
1350.000000,25.980448
1400.000000,26.782304
1450.000000,27.744486
1500.000000,28.706669
1550.000000,29.539330
1600.000000,30.371992
1650.000000,31.312241
1700.000000,32.216408
1750.000000,33.044429
1800.000000,33.872451
1850.000000,34.701794
1900.000000,35.481581
1950.000000,36.234050
2000.000000,36.947024
2050.000000,37.652104
2100.000000,38.316346
2150.000000,38.991729
2200.000000,39.613830
2250.000000,40.233643
2300.000000,40.833019
2350.000000,41.419033
2400.000000,42.001504
2450.000000,42.626094
2500.000000,43.222974
2550.000000,43.785044
2600.000000,44.347115
2650.000000,44.884238
2700.000000,45.396921
2750.000000,45.889572
2800.000000,46.382223
2850.000000,46.893022
2900.000000,47.403822
2950.000000,47.884754
3000.000000,48.324289
3050.000000,48.759457
3100.000000,49.194626
3150.000000,49.588910
3200.000000,49.951205
3250.000000,50.313501
3300.000000,50.653009
3350.000000,50.957166
3400.000000,51.247694
3450.000000,51.498597
3500.000000,51.737719

[TABLE_4_NETWORK_LIFETIME]
Round,AliveNodes,DeadNodes,Time_s
50.000000,50,0,50.000000
100.000000,50,0,100.000000
150.000000,50,0,150.000000
200.000000,50,0,200.000000
250.000000,50,0,250.000000
300.000000,50,0,300.000000
350.000000,50,0,350.000000
400.000000,50,0,400.000000
450.000000,50,0,450.000000
500.000000,50,0,500.000000
550.000000,50,0,550.000000
600.000000,50,0,600.000000
650.000000,50,0,650.000000
700.000000,50,0,700.000000
750.000000,50,0,750.000000
800.000000,50,0,800.000000
850.000000,50,0,850.000000
900.000000,50,0,900.000000
950.000000,50,0,950.000000
1000.000000,50,0,1000.000000
1050.000000,50,0,1050.000000
1100.000000,50,0,1100.000000
1150.000000,50,0,1150.000000
1200.000000,49,1,1200.000000
1250.000000,48,2,1250.000000
1300.000000,48,2,1300.000000
1350.000000,48,2,1350.000000
1400.000000,48,2,1400.000000
1450.000000,48,2,1450.000000
1500.000000,48,2,1500.000000
1550.000000,48,2,1550.000000
1600.000000,48,2,1600.000000
1650.000000,47,3,1650.000000
1700.000000,46,4,1700.000000
1750.000000,46,4,1750.000000
1800.000000,46,4,1800.000000
1850.000000,45,5,1850.000000
1900.000000,44,6,1900.000000
1950.000000,43,7,1950.000000
2000.000000,42,8,2000.000000
2050.000000,40,10,2050.000000
2100.000000,40,10,2100.000000
2150.000000,39,11,2150.000000
2200.000000,38,12,2200.000000
2250.000000,38,12,2250.000000
2300.000000,37,13,2300.000000
2350.000000,36,14,2350.000000
2400.000000,36,14,2400.000000
2450.000000,35,15,2450.000000
2500.000000,34,16,2500.000000
2550.000000,34,16,2550.000000
2600.000000,34,16,2600.000000
2650.000000,32,18,2650.000000
2700.000000,31,19,2700.000000
2750.000000,31,19,2750.000000
2800.000000,31,19,2800.000000
2850.000000,31,19,2850.000000
2900.000000,31,19,2900.000000
2950.000000,29,21,2950.000000
3000.000000,28,22,3000.000000
3050.000000,28,22,3050.000000
3100.000000,28,22,3100.000000
3150.000000,25,25,3150.000000
3200.000000,25,25,3200.000000
3250.000000,25,25,3250.000000
3300.000000,23,27,3300.000000
3350.000000,22,28,3350.000000
3400.000000,21,29,3400.000000
3450.000000,20,30,3450.000000
3500.000000,20,30,3500.000000

[TABLE_5_PDR_PERCENT]
Round,PDR_RL_pct,PDR_NS3_pct
50.000000,100.00,66.78
100.00,100.00,66.78
150.00,100.00,66.78
200.00,100.00,66.78
250.00,100.00,66.89
300.00,100.00,66.89
350.00,100.00,66.89
400.00,100.00,66.89
450.00,100.00,66.89
500.00,100.00,69.18
550.00,100.00,69.18
600.00,100.00,69.18
650.00,100.00,69.18
700.00,100.00,69.18
750.00,100.00,69.51
800.00,100.00,69.51
850.00,100.00,69.51
900.00,100.00,69.51
950.00,100.00,69.51
1000.00,100.00,69.32
1050.00,100.00,69.32
1100.00,100.00,69.32
1150.00,100.00,69.32
1200.00,99.99,69.32
1250.00,99.98,68.46
1300.00,99.90,68.46
1350.00,99.90,68.46
1400.00,99.91,68.46
1450.00,99.91,68.46
1500.00,99.91,67.90
1550.00,99.92,67.90
1600.00,99.92,67.90
1650.00,99.89,67.90
1700.00,99.80,67.90
1750.00,99.81,68.02
1800.00,99.81,68.02
1850.00,99.81,68.02
1900.00,99.79,68.02
1950.00,99.79,68.02
2000.00,99.74,68.36
2050.00,99.73,68.36
2100.00,99.74,68.36
2150.00,99.74,68.36
2200.00,99.74,68.36
2250.00,99.74,68.76
2300.00,99.70,68.76
2350.00,99.70,68.76
2400.00,99.70,68.76
2450.00,99.70,68.76
2500.00,99.70,69.50
2550.00,99.71,69.50
2600.00,99.71,69.50
2650.00,99.67,69.50
2700.00,99.63,69.50
2750.00,99.64,70.48
2800.00,99.64,70.48
2850.00,99.65,70.48
2900.00,99.65,70.48
2950.00,99.65,70.48
3000.00,99.65,71.49
3050.00,99.65,71.49
3100.00,99.66,71.49
3150.00,99.65,71.49
3200.00,99.65,71.49
3250.00,99.65,72.54
3300.00,99.65,72.54
3350.00,99.65,72.54
3400.00,99.65,72.54
3450.00,99.65,72.54
3500.00,99.65,73.48

[TABLE_6_END_TO_END_DELAY_ms]
Round,Delay_ms
500.00,9.28
1000.00,9.28
1500.00,10.24
2000.00,10.24
2500.00,9.18
3000.00,9.18
3500.00,9.47
4000.00,9.47
4500.00,9.37
5000.00,9.37
5500.00,9.18
6000.00,9.18
6500.00,9.37
7000.00,9.37
7500.00,9.47
8000.00,9.47
8500.00,9.47
9000.00,9.47
9500.00,10.73
10000.00,10.73
10500.00,8.89
11000.00,8.89
11500.00,9.47
12000.00,9.47
12500.00,8.96
13000.00,8.96
13500.00,9.56
14000.00,9.56
14500.00,9.16
15000.00,9.16
15500.00,9.76
16000.00,9.76
16500.00,8.43
17000.00,8.30
17500.00,8.93
18000.00,8.93
18500.00,8.70
19000.00,8.57
19500.00,8.65
20000.00,8.51
20500.00,8.58
21000.00,8.58
21500.00,8.30
22000.00,8.27
22500.00,8.01
23000.00,7.84
23500.00,7.52
24000.00,7.52
24500.00,7.04
25000.00,6.96
25500.00,6.96
26000.00,6.96
26500.00,6.64
27000.00,6.55
27500.00,6.39
28000.00,6.39
28500.00,6.39
29000.00,6.39
29500.00,6.33
30000.00,6.21
30500.00,5.87
31000.00,5.87
31500.00,5.61
32000.00,5.61
32500.00,5.61
33000.00,5.25
33500.00,5.27
34000.00,5.06
34500.00,4.83
35000.00,4.83

[TABLE_7_ALIVE_NODES]
Round,AliveNodes
50.00,50
100.00,50
150.00,50
200.00,50
250.00,50
300.00,50
350.00,50
400.00,50
450.00,50
500.00,50
550.00,50
600.00,50
650.00,50
700.00,50
750.00,50
800.00,50
850.00,50
900.00,50
950.00,50
1000.00,50
1050.00,50
1100.00,50
1150.00,50
1200.00,49
1250.00,48
1300.00,48
1350.00,48
1400.00,48
1450.00,48
1500.00,48
1550.00,48
1600.00,48
1650.00,47
1700.00,46
1750.00,46
1800.00,46
1850.00,45
1900.00,44
1950.00,43
2000.00,42
2050.00,40
2100.00,40
2150.00,39
2200.00,38
2250.00,38
2300.00,37
2350.00,36
2400.00,36
2450.00,35
2500.00,34
2550.00,34
2600.00,34
2650.00,32
2700.00,31
2750.00,31
2800.00,31
2850.00,31
2900.00,31
2950.00,29
3000.00,28
3050.00,28
3100.00,28
3150.00,25
3200.00,25
3250.00,25
3300.00,23
3350.00,22
3400.00,21
3450.00,20
3500.00,20

[TABLE_8_DEAD_NODES]
Round,DeadNodes
50.00,0
100.00,0
150.00,0
200.00,0
250.00,0
300.00,0
350.00,0
400.00,0
450.00,0
500.00,0
550.00,0
600.00,0
650.00,0
700.00,0
750.00,0
800.00,0
850.00,0
900.00,0
950.00,0
1000.00,0
1050.00,0
1100.00,0
1150.00,0
1200.00,1
1250.00,2
1300.00,2
1350.00,2
1400.00,2
1450.00,2
1500.00,2
1550.00,2
1600.00,2
1650.00,3
1700.00,4
1750.00,4
1800.00,4
1850.00,5
1900.00,6
1950.00,7
2000.00,8
2050.00,10
2100.00,10
2150.00,11
2200.00,12
2250.00,12
2300.00,13
2350.00,14
2400.00,14
2450.00,15
2500.00,16
2550.00,16
2600.00,16
2650.00,18
2700.00,19
2750.00,19
2800.00,19
2850.00,19
2900.00,19
2950.00,21
3000.00,22
3050.00,22
3100.00,22
3150.00,25
3200.00,25
3250.00,25
3300.00,27
3350.00,28
3400.00,29
3450.00,30
3500.00,30

[TABLE_RL_METRICS]
Round,RL_Steps,Fed_Rounds
50.00,500,0
100.00,1000,0
150.00,1500,0
200.00,2000,0
250.00,2500,0
300.00,3000,0
350.00,3500,0
400.00,4000,0
450.00,4500,0
500.00,5000,0
550.00,5500,0
600.00,6000,0
650.00,6500,0
700.00,7000,0
750.00,7500,0
800.00,8000,0
850.00,8500,0
900.00,9000,0
950.00,9500,0
1000.00,10000,0
1050.00,10500,0
1100.00,11000,0
1150.00,11500,0
1200.00,12000,0
1250.00,12490,0
1300.00,12970,0
1350.00,13450,0
1400.00,13930,0
1450.00,14410,0
1500.00,14890,0
1550.00,15370,0
1600.00,15850,0
1650.00,16327,0
1700.00,16793,0
1750.00,17253,0
1800.00,17713,0
1850.00,18172,0
1900.00,18618,0
1950.00,19053,0
2000.00,19474,0
2050.00,19884,0
2100.00,20284,0
2150.00,20682,0
2200.00,21065,0
2250.00,21445,0
2300.00,21816,0
2350.00,22181,0
2400.00,22541,0
2450.00,22901,0
2500.00,23251,0
2550.00,23591,0
2600.00,23931,0
2650.00,24259,0
2700.00,24578,0
2750.00,24888,0
2800.00,25198,0
2850.00,25508,0
2900.00,25818,0
2950.00,26123,0
3000.00,26411,0
3050.00,26691,0
3100.00,26971,0
3150.00,27236,0
3200.00,27486,0
3250.00,27736,0
3300.00,27978,0
3350.00,28205,0
3400.00,28425,0
3450.00,28630,0
3500.00,28830,0
