# FDQN-TE+ Comparison Metrics (vs Article) - Énergie en Joules
# Tables: 3 (Energy), 4 (Lifetime), 5 (PDR), 6 (Delay), 7-8 (Alive/Dead Nodes)

[SUMMARY]
Metric,Value,Unit
FND (First Node Death),1797,s
HND (Half Node Death),2602,s
LND (90% Node Death),3302,s
Total Rounds,66,rounds
Average PDR RL,98.5752,%
PDR RL pre-FND (stable phase),99.3195,%
Average PDR NS-3,100,%
Average End-to-End Delay,4.77253,ms
Total Energy Consumed,358.115,J

[TABLE_3_ENERGY_CONSUMPTION_J]
Round,EnergyConsumed_J
50,6.338469
100.000000,12.683796
150.000000,19.085640
200.000000,25.505817
250.000000,31.953222
300.000000,38.387882
350.000000,45.210606
400.000000,52.011321
450.000000,58.539090
500.000000,65.055723
550.000000,72.047930
600.000000,79.023009
650.000000,86.171420
700.000000,93.326109
750.000000,100.689503
800.000000,108.052398
850.000000,116.160411
900.000000,124.282890
950.000000,132.189061
1000.000000,140.035646
1050.000000,147.737205
1100.000000,155.373544
1150.000000,163.631114
1200.000000,171.544963
1250.000000,179.270662
1300.000000,186.721995
1350.000000,194.580844
1400.000000,201.987562
1450.000000,208.818965
1500.000000,215.398631
1550.000000,222.034738
1600.000000,228.540823
1650.000000,234.962928
1700.000000,241.193733
1750.000000,247.709436
1800.000000,254.118718
1850.000000,260.631153
1900.000000,266.945928
1950.000000,273.589136
2000.000000,279.822571
2050.000000,286.480826
2100.000000,292.823729
2150.000000,299.343212
2200.000000,305.388363
2250.000000,311.488867
2300.000000,316.960076
2350.000000,322.589657
2400.000000,327.493321
2450.000000,332.456968
2500.000000,336.535611
2550.000000,340.459239
2600.000000,343.585366
2650.000000,346.223515
2700.000000,348.261658
2750.000000,349.919187
2800.000000,351.186624
2850.000000,352.271558
2900.000000,353.187196
2950.000000,354.096473
3000.000000,354.843970
3050.000000,355.530850
3100.000000,356.136765
3150.000000,356.696071
3200.000000,357.210893
3250.000000,357.701840
3300.000000,358.070624

[TABLE_4_NETWORK_LIFETIME]
Round,AliveNodes,DeadNodes,Time_s
50.000000,300,0,50.000000
100.000000,300,0,100.000000
150.000000,300,0,150.000000
200.000000,300,0,200.000000
250.000000,300,0,250.000000
300.000000,300,0,300.000000
350.000000,300,0,350.000000
400.000000,300,0,400.000000
450.000000,300,0,450.000000
500.000000,300,0,500.000000
550.000000,300,0,550.000000
600.000000,300,0,600.000000
650.000000,300,0,650.000000
700.000000,300,0,700.000000
750.000000,300,0,750.000000
800.000000,300,0,800.000000
850.000000,300,0,850.000000
900.000000,300,0,900.000000
950.000000,300,0,950.000000
1000.000000,300,0,1000.000000
1050.000000,300,0,1050.000000
1100.000000,300,0,1100.000000
1150.000000,300,0,1150.000000
1200.000000,300,0,1200.000000
1250.000000,300,0,1250.000000
1300.000000,300,0,1300.000000
1350.000000,300,0,1350.000000
1400.000000,300,0,1400.000000
1450.000000,300,0,1450.000000
1500.000000,300,0,1500.000000
1550.000000,300,0,1550.000000
1600.000000,300,0,1600.000000
1650.000000,300,0,1650.000000
1700.000000,300,0,1700.000000
1750.000000,300,0,1750.000000
1800.000000,299,1,1800.000000
1850.000000,297,3,1850.000000
1900.000000,297,3,1900.000000
1950.000000,296,4,1950.000000
2000.000000,296,4,2000.000000
2050.000000,294,6,2050.000000
2100.000000,292,8,2100.000000
2150.000000,288,12,2150.000000
2200.000000,279,21,2200.000000
2250.000000,273,27,2250.000000
2300.000000,261,39,2300.000000
2350.000000,255,45,2350.000000
2400.000000,237,63,2400.000000
2450.000000,216,84,2450.000000
2500.000000,203,97,2500.000000
2550.000000,176,124,2550.000000
2600.000000,153,147,2600.000000
2650.000000,130,170,2650.000000
2700.000000,111,189,2700.000000
2750.000000,93,207,2750.000000
2800.000000,78,222,2800.000000
2850.000000,71,229,2850.000000
2900.000000,65,235,2900.000000
2950.000000,59,241,2950.000000
3000.000000,54,246,3000.000000
3050.000000,48,252,3050.000000
3100.000000,45,255,3100.000000
3150.000000,44,256,3150.000000
3200.000000,39,261,3200.000000
3250.000000,34,266,3250.000000
3300.000000,31,269,3300.000000

[TABLE_5_PDR_PERCENT]
Round,PDR_RL_pct,PDR_NS3_pct
50.000000,100.00,100.00
100.00,100.00,100.00
150.00,99.92,100.00
200.00,99.89,100.00
250.00,99.71,100.00
300.00,99.58,100.00
350.00,99.53,100.00
400.00,99.50,100.00
450.00,99.44,100.00
500.00,99.42,100.00
550.00,99.43,100.00
600.00,99.46,100.00
650.00,99.47,100.00
700.00,99.48,100.00
750.00,99.40,100.00
800.00,99.32,100.00
850.00,99.33,100.00
900.00,99.34,100.00
950.00,99.30,100.00
1000.00,99.24,100.00
1050.00,99.23,100.00
1100.00,99.22,100.00
1150.00,99.22,100.00
1200.00,99.20,100.00
1250.00,99.22,100.00
1300.00,99.24,100.00
1350.00,99.24,100.00
1400.00,99.25,100.00
1450.00,99.22,100.00
1500.00,99.24,100.00
1550.00,99.26,100.00
1600.00,99.28,100.00
1650.00,99.29,100.00
1700.00,99.30,100.00
1750.00,99.32,100.00
1800.00,99.32,100.00
1850.00,99.34,100.00
1900.00,99.35,100.00
1950.00,99.36,100.00
2000.00,99.36,100.00
2050.00,99.37,100.00
2100.00,99.36,100.00
2150.00,99.34,100.00
2200.00,99.25,100.00
2250.00,99.25,100.00
2300.00,98.75,100.00
2350.00,98.72,100.00
2400.00,98.13,100.00
2450.00,98.05,100.00
2500.00,97.58,100.00
2550.00,97.48,100.00
2600.00,97.16,100.00
2650.00,97.02,100.00
2700.00,96.70,100.00
2750.00,96.60,100.00
2800.00,96.45,100.00
2850.00,96.39,100.00
2900.00,96.26,100.00
2950.00,96.21,100.00
3000.00,96.10,100.00
3050.00,96.06,100.00
3100.00,95.97,100.00
3150.00,95.94,100.00
3200.00,95.88,100.00
3250.00,95.88,100.00
3300.00,95.85,100.00

[TABLE_6_END_TO_END_DELAY_ms]
Round,Delay_ms
500.00,4.85
1000.00,4.76
1500.00,4.76
2000.00,4.76
2500.00,4.76
3000.00,4.76
3500.00,4.76

[TABLE_7_ALIVE_NODES]
Round,AliveNodes
50.00,300
100.00,300
150.00,300
200.00,300
250.00,300
300.00,300
350.00,300
400.00,300
450.00,300
500.00,300
550.00,300
600.00,300
650.00,300
700.00,300
750.00,300
800.00,300
850.00,300
900.00,300
950.00,300
1000.00,300
1050.00,300
1100.00,300
1150.00,300
1200.00,300
1250.00,300
1300.00,300
1350.00,300
1400.00,300
1450.00,300
1500.00,300
1550.00,300
1600.00,300
1650.00,300
1700.00,300
1750.00,300
1800.00,299
1850.00,297
1900.00,297
1950.00,296
2000.00,296
2050.00,294
2100.00,292
2150.00,288
2200.00,279
2250.00,273
2300.00,261
2350.00,255
2400.00,237
2450.00,216
2500.00,203
2550.00,176
2600.00,153
2650.00,130
2700.00,111
2750.00,93
2800.00,78
2850.00,71
2900.00,65
2950.00,59
3000.00,54
3050.00,48
3100.00,45
3150.00,44
3200.00,39
3250.00,34
3300.00,31

[TABLE_8_DEAD_NODES]
Round,DeadNodes
50.00,0
100.00,0
150.00,0
200.00,0
250.00,0
300.00,0
350.00,0
400.00,0
450.00,0
500.00,0
550.00,0
600.00,0
650.00,0
700.00,0
750.00,0
800.00,0
850.00,0
900.00,0
950.00,0
1000.00,0
1050.00,0
1100.00,0
1150.00,0
1200.00,0
1250.00,0
1300.00,0
1350.00,0
1400.00,0
1450.00,0
1500.00,0
1550.00,0
1600.00,0
1650.00,0
1700.00,0
1750.00,0
1800.00,1
1850.00,3
1900.00,3
1950.00,4
2000.00,4
2050.00,6
2100.00,8
2150.00,12
2200.00,21
2250.00,27
2300.00,39
2350.00,45
2400.00,63
2450.00,84
2500.00,97
2550.00,124
2600.00,147
2650.00,170
2700.00,189
2750.00,207
2800.00,222
2850.00,229
2900.00,235
2950.00,241
3000.00,246
3050.00,252
3100.00,255
3150.00,256
3200.00,261
3250.00,266
3300.00,269

[TABLE_RL_METRICS]
Round,RL_Steps,Fed_Rounds
50.00,3000,60
100.00,6000,120
150.00,9000,180
200.00,12000,240
250.00,15000,300
300.00,18000,360
350.00,21000,420
400.00,24000,480
450.00,27000,540
500.00,30000,600
550.00,33000,660
600.00,36000,720
650.00,39000,780
700.00,42000,840
750.00,45000,900
800.00,48000,960
850.00,51000,1020
900.00,54000,1080
950.00,57000,1140
1000.00,60000,1200
1050.00,63000,1260
1100.00,66000,1320
1150.00,69000,1380
1200.00,72000,1440
1250.00,75000,1500
1300.00,78000,1560
1350.00,81000,1620
1400.00,84000,1680
1450.00,87000,1740
1500.00,90000,1800
1550.00,93000,1860
1600.00,96000,1920
1650.00,99000,1980
1700.00,102000,2040
1750.00,105000,2100
1800.00,108000,2160
1850.00,110984,2219
1900.00,113954,2279
1950.00,116917,2338
2000.00,119877,2397
2050.00,122832,2456
2100.00,125769,2515
2150.00,128669,2573
2200.00,131522,2630
2250.00,134291,2685
2300.00,136962,2739
2350.00,139548,2790
2400.00,142006,2840
2450.00,144305,2886
2500.00,146413,2928
2550.00,148310,2966
2600.00,149967,2999
2650.00,151377,3027
2700.00,152582,3051
2750.00,153567,3071
2800.00,154364,3087
2850.00,155028,3100
2900.00,155609,3112
2950.00,156142,3122
3000.00,156609,3132
3050.00,157019,3140
3100.00,157387,3147
3150.00,157729,3154
3200.00,158045,3160
3250.00,158317,3166
3300.00,158540,3170
