# FDQN-TE+ Comparison Metrics (vs Article) - Énergie en Joules
# Tables: 3 (Energy), 4 (Lifetime), 5 (PDR), 6 (Delay), 7-8 (Alive/Dead Nodes)

[SUMMARY]
Metric,Value,Unit
FND (First Node Death),1957,s
HND (Half Node Death),2632,s
LND (90% Node Death),3377,s
Total Rounds,67,rounds
Average PDR RL,98.315,%
PDR RL pre-FND (stable phase),99.3391,%
Average PDR NS-3,100,%
Average End-to-End Delay,4.77253,ms
Total Energy Consumed,358.66,J

[TABLE_3_ENERGY_CONSUMPTION_J]
Round,EnergyConsumed_J
50,6.339449
100.000000,12.697146
150.000000,19.244014
200.000000,25.785448
250.000000,32.492449
300.000000,38.982212
350.000000,46.520855
400.000000,53.127224
450.000000,61.039056
500.000000,68.005136
550.000000,76.077900
600.000000,83.289941
650.000000,91.317745
700.000000,98.205791
750.000000,106.273738
800.000000,113.140876
850.000000,120.516829
900.000000,127.350737
950.000000,134.472488
1000.000000,141.127867
1050.000000,148.350024
1100.000000,155.395006
1150.000000,161.868928
1200.000000,168.042880
1250.000000,174.623407
1300.000000,180.938470
1350.000000,187.527135
1400.000000,194.034854
1450.000000,200.806445
1500.000000,207.210156
1550.000000,214.191336
1600.000000,220.835555
1650.000000,227.667221
1700.000000,234.367799
1750.000000,241.308948
1800.000000,247.980168
1850.000000,254.875384
1900.000000,261.545040
1950.000000,268.842226
2000.000000,275.865522
2050.000000,282.608156
2100.000000,289.178994
2150.000000,296.047220
2200.000000,302.477794
2250.000000,309.214374
2300.000000,315.036649
2350.000000,321.090909
2400.000000,326.401300
2450.000000,331.752243
2500.000000,336.258777
2550.000000,340.613774
2600.000000,344.179061
2650.000000,347.266415
2700.000000,349.440489
2750.000000,351.085613
2800.000000,352.158469
2850.000000,353.132633
2900.000000,353.876925
2950.000000,354.693299
3000.000000,355.357187
3050.000000,356.019292
3100.000000,356.548602
3150.000000,357.069902
3200.000000,357.518435
3250.000000,357.886468
3300.000000,358.196180
3350.000000,358.494589

[TABLE_4_NETWORK_LIFETIME]
Round,AliveNodes,DeadNodes,Time_s
50.000000,300,0,50.000000
100.000000,300,0,100.000000
150.000000,300,0,150.000000
200.000000,300,0,200.000000
250.000000,300,0,250.000000
300.000000,300,0,300.000000
350.000000,300,0,350.000000
400.000000,300,0,400.000000
450.000000,300,0,450.000000
500.000000,300,0,500.000000
550.000000,300,0,550.000000
600.000000,300,0,600.000000
650.000000,300,0,650.000000
700.000000,300,0,700.000000
750.000000,300,0,750.000000
800.000000,300,0,800.000000
850.000000,300,0,850.000000
900.000000,300,0,900.000000
950.000000,300,0,950.000000
1000.000000,300,0,1000.000000
1050.000000,300,0,1050.000000
1100.000000,300,0,1100.000000
1150.000000,300,0,1150.000000
1200.000000,300,0,1200.000000
1250.000000,300,0,1250.000000
1300.000000,300,0,1300.000000
1350.000000,300,0,1350.000000
1400.000000,300,0,1400.000000
1450.000000,300,0,1450.000000
1500.000000,300,0,1500.000000
1550.000000,300,0,1550.000000
1600.000000,300,0,1600.000000
1650.000000,300,0,1650.000000
1700.000000,300,0,1700.000000
1750.000000,300,0,1750.000000
1800.000000,300,0,1800.000000
1850.000000,300,0,1850.000000
1900.000000,300,0,1900.000000
1950.000000,300,0,1950.000000
2000.000000,299,1,2000.000000
2050.000000,299,1,2050.000000
2100.000000,298,2,2100.000000
2150.000000,297,3,2150.000000
2200.000000,294,6,2200.000000
2250.000000,288,12,2250.000000
2300.000000,278,22,2300.000000
2350.000000,270,30,2350.000000
2400.000000,253,47,2400.000000
2450.000000,236,64,2450.000000
2500.000000,216,84,2500.000000
2550.000000,194,106,2550.000000
2600.000000,174,126,2600.000000
2650.000000,140,160,2650.000000
2700.000000,112,188,2700.000000
2750.000000,82,218,2750.000000
2800.000000,72,228,2800.000000
2850.000000,63,237,2850.000000
2900.000000,57,243,2900.000000
2950.000000,54,246,2950.000000
3000.000000,54,246,3000.000000
3050.000000,49,251,3050.000000
3100.000000,47,253,3100.000000
3150.000000,42,258,3150.000000
3200.000000,38,262,3200.000000
3250.000000,36,264,3250.000000
3300.000000,33,267,3300.000000
3350.000000,31,269,3350.000000

[TABLE_5_PDR_PERCENT]
Round,PDR_RL_pct,PDR_NS3_pct
50.000000,100.00,100.00
100.00,99.95,100.00
150.00,99.88,100.00
200.00,99.79,100.00
250.00,99.69,100.00
300.00,99.52,100.00
350.00,99.48,100.00
400.00,99.40,100.00
450.00,99.42,100.00
500.00,99.41,100.00
550.00,99.37,100.00
600.00,99.36,100.00
650.00,99.35,100.00
700.00,99.31,100.00
750.00,99.30,100.00
800.00,99.28,100.00
850.00,99.26,100.00
900.00,99.23,100.00
950.00,99.24,100.00
1000.00,99.24,100.00
1050.00,99.26,100.00
1100.00,99.24,100.00
1150.00,99.23,100.00
1200.00,99.27,100.00
1250.00,99.28,100.00
1300.00,99.27,100.00
1350.00,99.28,100.00
1400.00,99.30,100.00
1450.00,99.31,100.00
1500.00,99.29,100.00
1550.00,99.29,100.00
1600.00,99.31,100.00
1650.00,99.31,100.00
1700.00,99.32,100.00
1750.00,99.33,100.00
1800.00,99.32,100.00
1850.00,99.33,100.00
1900.00,99.34,100.00
1950.00,99.34,100.00
2000.00,99.35,100.00
2050.00,99.32,100.00
2100.00,99.32,100.00
2150.00,99.32,100.00
2200.00,99.10,100.00
2250.00,99.06,100.00
2300.00,98.58,100.00
2350.00,98.55,100.00
2400.00,97.92,100.00
2450.00,97.81,100.00
2500.00,97.21,100.00
2550.00,97.09,100.00
2600.00,96.55,100.00
2650.00,96.37,100.00
2700.00,95.98,100.00
2750.00,95.83,100.00
2800.00,95.61,100.00
2850.00,95.58,100.00
2900.00,95.47,100.00
2950.00,95.43,100.00
3000.00,95.33,100.00
3050.00,95.27,100.00
3100.00,95.20,100.00
3150.00,95.21,100.00
3200.00,95.16,100.00
3250.00,95.14,100.00
3300.00,95.12,100.00
3350.00,95.11,100.00

[TABLE_6_END_TO_END_DELAY_ms]
Round,Delay_ms
500.00,4.85
1000.00,4.76
1500.00,4.76
2000.00,4.76
2500.00,4.76
3000.00,4.76
3500.00,4.76

[TABLE_7_ALIVE_NODES]
Round,AliveNodes
50.00,300
100.00,300
150.00,300
200.00,300
250.00,300
300.00,300
350.00,300
400.00,300
450.00,300
500.00,300
550.00,300
600.00,300
650.00,300
700.00,300
750.00,300
800.00,300
850.00,300
900.00,300
950.00,300
1000.00,300
1050.00,300
1100.00,300
1150.00,300
1200.00,300
1250.00,300
1300.00,300
1350.00,300
1400.00,300
1450.00,300
1500.00,300
1550.00,300
1600.00,300
1650.00,300
1700.00,300
1750.00,300
1800.00,300
1850.00,300
1900.00,300
1950.00,300
2000.00,299
2050.00,299
2100.00,298
2150.00,297
2200.00,294
2250.00,288
2300.00,278
2350.00,270
2400.00,253
2450.00,236
2500.00,216
2550.00,194
2600.00,174
2650.00,140
2700.00,112
2750.00,82
2800.00,72
2850.00,63
2900.00,57
2950.00,54
3000.00,54
3050.00,49
3100.00,47
3150.00,42
3200.00,38
3250.00,36
3300.00,33
3350.00,31

[TABLE_8_DEAD_NODES]
Round,DeadNodes
50.00,0
100.00,0
150.00,0
200.00,0
250.00,0
300.00,0
350.00,0
400.00,0
450.00,0
500.00,0
550.00,0
600.00,0
650.00,0
700.00,0
750.00,0
800.00,0
850.00,0
900.00,0
950.00,0
1000.00,0
1050.00,0
1100.00,0
1150.00,0
1200.00,0
1250.00,0
1300.00,0
1350.00,0
1400.00,0
1450.00,0
1500.00,0
1550.00,0
1600.00,0
1650.00,0
1700.00,0
1750.00,0
1800.00,0
1850.00,0
1900.00,0
1950.00,0
2000.00,1
2050.00,1
2100.00,2
2150.00,3
2200.00,6
2250.00,12
2300.00,22
2350.00,30
2400.00,47
2450.00,64
2500.00,84
2550.00,106
2600.00,126
2650.00,160
2700.00,188
2750.00,218
2800.00,228
2850.00,237
2900.00,243
2950.00,246
3000.00,246
3050.00,251
3100.00,253
3150.00,258
3200.00,262
3250.00,264
3300.00,267
3350.00,269

[TABLE_RL_METRICS]
Round,RL_Steps,Fed_Rounds
50.00,3000,60
100.00,6000,120
150.00,9000,180
200.00,12000,240
250.00,15000,300
300.00,18000,360
350.00,21000,420
400.00,24000,480
450.00,27000,540
500.00,30000,600
550.00,33000,660
600.00,36000,720
650.00,39000,780
700.00,42000,840
750.00,45000,900
800.00,48000,960
850.00,51000,1020
900.00,54000,1080
950.00,57000,1140
1000.00,60000,1200
1050.00,63000,1260
1100.00,66000,1320
1150.00,69000,1380
1200.00,72000,1440
1250.00,75000,1500
1300.00,78000,1560
1350.00,81000,1620
1400.00,84000,1680
1450.00,87000,1740
1500.00,90000,1800
1550.00,93000,1860
1600.00,96000,1920
1650.00,99000,1980
1700.00,102000,2040
1750.00,105000,2100
1800.00,108000,2160
1850.00,111000,2220
1900.00,114000,2280
1950.00,117000,2340
2000.00,119992,2399
2050.00,122982,2459
2100.00,125967,2519
2150.00,128947,2578
2200.00,131900,2638
2250.00,134817,2696
2300.00,137640,2752
2350.00,140388,2807
2400.00,143010,2860
2450.00,145490,2909
2500.00,147770,2955
2550.00,149858,2997
2600.00,151712,3034
2650.00,153285,3065
2700.00,154516,3090
2750.00,155485,3109
2800.00,156180,3123
2850.00,156762,3135
2900.00,157252,3145
2950.00,157689,3153
3000.00,158109,3162
3050.00,158475,3169
3100.00,158818,3176
3150.00,159119,3182
3200.00,159367,3187
3250.00,159585,3191
3300.00,159778,3195
3350.00,159946,3198
