# FDQN-TE+ Comparison Metrics (vs Article) - Énergie en Joules
# Tables: 3 (Energy), 4 (Lifetime), 5 (PDR), 6 (Delay), 7-8 (Alive/Dead Nodes)

[SUMMARY]
Metric,Value,Unit
FND (First Node Death),2097,s
HND (Half Node Death),2627,s
LND (90% Node Death),3397,s
Total Rounds,67,rounds
Average PDR RL,98.528,%
PDR RL pre-FND (stable phase),99.3967,%
Average PDR NS-3,100,%
Average End-to-End Delay,17.8303,ms
Total Energy Consumed,358.516,J

[TABLE_3_ENERGY_CONSUMPTION_J]
Round,EnergyConsumed_J
50,6.372541
100.000000,12.729640
150.000000,19.132988
200.000000,25.530216
250.000000,32.122222
300.000000,38.708438
350.000000,45.500756
400.000000,52.105058
450.000000,59.032124
500.000000,65.570182
550.000000,73.037530
600.000000,80.143749
650.000000,87.905655
700.000000,95.076950
750.000000,103.350777
800.000000,110.303886
850.000000,118.394644
900.000000,125.845864
950.000000,133.631735
1000.000000,140.649086
1050.000000,148.238171
1100.000000,155.452445
1150.000000,161.981335
1200.000000,168.223307
1250.000000,174.988845
1300.000000,181.441243
1350.000000,188.328487
1400.000000,194.892194
1450.000000,201.810008
1500.000000,208.415434
1550.000000,215.199869
1600.000000,221.661208
1650.000000,228.674263
1700.000000,235.160207
1750.000000,242.099055
1800.000000,248.689927
1850.000000,255.649890
1900.000000,262.132936
1950.000000,269.193376
2000.000000,275.829920
2050.000000,282.870534
2100.000000,289.707613
2150.000000,296.557012
2200.000000,303.279575
2250.000000,309.797867
2300.000000,315.457950
2350.000000,321.587752
2400.000000,326.517998
2450.000000,331.509596
2500.000000,335.804240
2550.000000,340.072435
2600.000000,343.461680
2650.000000,346.395553
2700.000000,348.511315
2750.000000,350.158707
2800.000000,351.372659
2850.000000,352.545172
2900.000000,353.449998
2950.000000,354.324068
3000.000000,355.029240
3050.000000,355.728290
3100.000000,356.250333
3150.000000,356.774876
3200.000000,357.199216
3250.000000,357.590196
3300.000000,357.909599
3350.000000,358.226247

[TABLE_4_NETWORK_LIFETIME]
Round,AliveNodes,DeadNodes,Time_s
50.000000,300,0,50.000000
100.000000,300,0,100.000000
150.000000,300,0,150.000000
200.000000,300,0,200.000000
250.000000,300,0,250.000000
300.000000,300,0,300.000000
350.000000,300,0,350.000000
400.000000,300,0,400.000000
450.000000,300,0,450.000000
500.000000,300,0,500.000000
550.000000,300,0,550.000000
600.000000,300,0,600.000000
650.000000,300,0,650.000000
700.000000,300,0,700.000000
750.000000,300,0,750.000000
800.000000,300,0,800.000000
850.000000,300,0,850.000000
900.000000,300,0,900.000000
950.000000,300,0,950.000000
1000.000000,300,0,1000.000000
1050.000000,300,0,1050.000000
1100.000000,300,0,1100.000000
1150.000000,300,0,1150.000000
1200.000000,300,0,1200.000000
1250.000000,300,0,1250.000000
1300.000000,300,0,1300.000000
1350.000000,300,0,1350.000000
1400.000000,300,0,1400.000000
1450.000000,300,0,1450.000000
1500.000000,300,0,1500.000000
1550.000000,300,0,1550.000000
1600.000000,300,0,1600.000000
1650.000000,300,0,1650.000000
1700.000000,300,0,1700.000000
1750.000000,300,0,1750.000000
1800.000000,300,0,1800.000000
1850.000000,300,0,1850.000000
1900.000000,300,0,1900.000000
1950.000000,300,0,1950.000000
2000.000000,300,0,2000.000000
2050.000000,300,0,2050.000000
2100.000000,299,1,2100.000000
2150.000000,297,3,2150.000000
2200.000000,292,8,2200.000000
2250.000000,283,17,2250.000000
2300.000000,272,28,2300.000000
2350.000000,261,39,2350.000000
2400.000000,241,59,2400.000000
2450.000000,231,69,2450.000000
2500.000000,209,91,2500.000000
2550.000000,187,113,2550.000000
2600.000000,161,139,2600.000000
2650.000000,133,167,2650.000000
2700.000000,113,187,2700.000000
2750.000000,91,209,2750.000000
2800.000000,79,221,2800.000000
2850.000000,70,230,2850.000000
2900.000000,66,234,2900.000000
2950.000000,60,240,2950.000000
3000.000000,55,245,3000.000000
3050.000000,50,250,3050.000000
3100.000000,46,254,3100.000000
3150.000000,41,259,3150.000000
3200.000000,40,260,3200.000000
3250.000000,34,266,3250.000000
3300.000000,34,266,3300.000000
3350.000000,33,267,3350.000000

[TABLE_5_PDR_PERCENT]
Round,PDR_RL_pct,PDR_NS3_pct
50.000000,100.00,100.00
100.00,100.00,100.00
150.00,100.00,100.00
200.00,100.00,100.00
250.00,99.93,100.00
300.00,99.87,100.00
350.00,99.72,100.00
400.00,99.68,100.00
450.00,99.57,100.00
500.00,99.49,100.00
550.00,99.47,100.00
600.00,99.44,100.00
650.00,99.47,100.00
700.00,99.45,100.00
750.00,99.46,100.00
800.00,99.42,100.00
850.00,99.39,100.00
900.00,99.36,100.00
950.00,99.38,100.00
1000.00,99.31,100.00
1050.00,99.34,100.00
1100.00,99.35,100.00
1150.00,99.31,100.00
1200.00,99.33,100.00
1250.00,99.34,100.00
1300.00,99.35,100.00
1350.00,99.35,100.00
1400.00,99.34,100.00
1450.00,99.34,100.00
1500.00,99.35,100.00
1550.00,99.36,100.00
1600.00,99.38,100.00
1650.00,99.35,100.00
1700.00,99.36,100.00
1750.00,99.37,100.00
1800.00,99.38,100.00
1850.00,99.39,100.00
1900.00,99.39,100.00
1950.00,99.41,100.00
2000.00,99.40,100.00
2050.00,99.40,100.00
2100.00,99.40,100.00
2150.00,99.40,100.00
2200.00,99.35,100.00
2250.00,99.33,100.00
2300.00,98.79,100.00
2350.00,98.74,100.00
2400.00,98.03,100.00
2450.00,97.96,100.00
2500.00,97.33,100.00
2550.00,97.27,100.00
2600.00,96.86,100.00
2650.00,96.72,100.00
2700.00,96.37,100.00
2750.00,96.28,100.00
2800.00,96.19,100.00
2850.00,96.12,100.00
2900.00,95.98,100.00
2950.00,95.97,100.00
3000.00,95.89,100.00
3050.00,95.88,100.00
3100.00,95.82,100.00
3150.00,95.79,100.00
3200.00,95.73,100.00
3250.00,95.72,100.00
3300.00,95.72,100.00
3350.00,95.73,100.00

[TABLE_6_END_TO_END_DELAY_ms]
Round,Delay_ms
500.00,17.57
1000.00,17.57
1500.00,18.49
2000.00,18.49
2500.00,19.15
3000.00,19.15
3500.00,18.86
4000.00,18.86
4500.00,19.30
5000.00,19.13
5500.00,20.89
6000.00,20.79
6500.00,20.58
7000.00,20.39
7500.00,21.31
8000.00,20.95
8500.00,21.62
9000.00,21.42
9500.00,20.58
10000.00,20.26
10500.00,19.96
11000.00,19.83
11500.00,18.57
12000.00,18.51
12500.00,19.52
13000.00,19.39
13500.00,19.49
14000.00,19.33
14500.00,19.47
15000.00,19.38
15500.00,19.05
16000.00,18.93
16500.00,19.39
17000.00,19.23
17500.00,19.02
18000.00,18.89
18500.00,18.67
19000.00,18.57
19500.00,19.12
20000.00,19.02
20500.00,18.33
21000.00,18.25
21500.00,19.21
22000.00,18.70
22500.00,18.05
23000.00,16.81
23500.00,17.48
24000.00,15.68
24500.00,17.05
25000.00,15.63
25500.00,16.74
26000.00,15.10
26500.00,15.22
27000.00,14.28
27500.00,14.71
28000.00,13.76
28500.00,14.08
29000.00,13.47
29500.00,14.33
30000.00,13.53
30500.00,13.24
31000.00,12.40
31500.00,12.85
32000.00,12.93
32500.00,14.21
33000.00,14.21
33500.00,15.67

[TABLE_7_ALIVE_NODES]
Round,AliveNodes
50.00,300
100.00,300
150.00,300
200.00,300
250.00,300
300.00,300
350.00,300
400.00,300
450.00,300
500.00,300
550.00,300
600.00,300
650.00,300
700.00,300
750.00,300
800.00,300
850.00,300
900.00,300
950.00,300
1000.00,300
1050.00,300
1100.00,300
1150.00,300
1200.00,300
1250.00,300
1300.00,300
1350.00,300
1400.00,300
1450.00,300
1500.00,300
1550.00,300
1600.00,300
1650.00,300
1700.00,300
1750.00,300
1800.00,300
1850.00,300
1900.00,300
1950.00,300
2000.00,300
2050.00,300
2100.00,299
2150.00,297
2200.00,292
2250.00,283
2300.00,272
2350.00,261
2400.00,241
2450.00,231
2500.00,209
2550.00,187
2600.00,161
2650.00,133
2700.00,113
2750.00,91
2800.00,79
2850.00,70
2900.00,66
2950.00,60
3000.00,55
3050.00,50
3100.00,46
3150.00,41
3200.00,40
3250.00,34
3300.00,34
3350.00,33

[TABLE_8_DEAD_NODES]
Round,DeadNodes
50.00,0
100.00,0
150.00,0
200.00,0
250.00,0
300.00,0
350.00,0
400.00,0
450.00,0
500.00,0
550.00,0
600.00,0
650.00,0
700.00,0
750.00,0
800.00,0
850.00,0
900.00,0
950.00,0
1000.00,0
1050.00,0
1100.00,0
1150.00,0
1200.00,0
1250.00,0
1300.00,0
1350.00,0
1400.00,0
1450.00,0
1500.00,0
1550.00,0
1600.00,0
1650.00,0
1700.00,0
1750.00,0
1800.00,0
1850.00,0
1900.00,0
1950.00,0
2000.00,0
2050.00,0
2100.00,1
2150.00,3
2200.00,8
2250.00,17
2300.00,28
2350.00,39
2400.00,59
2450.00,69
2500.00,91
2550.00,113
2600.00,139
2650.00,167
2700.00,187
2750.00,209
2800.00,221
2850.00,230
2900.00,234
2950.00,240
3000.00,245
3050.00,250
3100.00,254
3150.00,259
3200.00,260
3250.00,266
3300.00,266
3350.00,267

[TABLE_RL_METRICS]
Round,RL_Steps,Fed_Rounds
50.00,3000,60
100.00,6000,120
150.00,9000,180
200.00,12000,240
250.00,15000,300
300.00,18000,360
350.00,21000,420
400.00,24000,480
450.00,27000,540
500.00,30000,600
550.00,33000,660
600.00,36000,720
650.00,39000,780
700.00,42000,840
750.00,45000,900
800.00,48000,960
850.00,51000,1020
900.00,54000,1080
950.00,57000,1140
1000.00,60000,1200
1050.00,63000,1260
1100.00,66000,1320
1150.00,69000,1380
1200.00,72000,1440
1250.00,75000,1500
1300.00,78000,1560
1350.00,81000,1620
1400.00,84000,1680
1450.00,87000,1740
1500.00,90000,1800
1550.00,93000,1860
1600.00,96000,1920
1650.00,99000,1980
1700.00,102000,2040
1750.00,105000,2100
1800.00,108000,2160
1850.00,111000,2220
1900.00,114000,2280
1950.00,117000,2340
2000.00,120000,2400
2050.00,123000,2460
2100.00,126000,2520
2150.00,128983,2579
2200.00,131932,2638
2250.00,134812,2696
2300.00,137587,2751
2350.00,140274,2805
2400.00,142792,2855
2450.00,145179,2903
2500.00,147396,2947
2550.00,149392,2987
2600.00,151139,3022
2650.00,152629,3052
2700.00,153838,3076
2750.00,154811,3096
2800.00,155569,3111
2850.00,156212,3124
2900.00,156788,3135
2950.00,157289,3145
3000.00,157713,3154
3050.00,158105,3162
3100.00,158429,3168
3150.00,158724,3174
3200.00,158981,3179
3250.00,159205,3184
3300.00,159395,3187
3350.00,159583,3191
