# FDQN-TE+ Comparison Metrics (vs Article) - Énergie en Joules
# Tables: 3 (Energy), 4 (Lifetime), 5 (PDR), 6 (Delay), 7-8 (Alive/Dead Nodes)

[SUMMARY]
Metric,Value,Unit
FND (First Node Death),1017,s
HND (Half Node Death),2897,s
LND (90% Node Death),0,s
Total Rounds,70,rounds
Average PDR RL,99.7867,%
PDR RL pre-FND (stable phase),100,%
Average PDR NS-3,0,%
Average End-to-End Delay,7.78134,ms
Total Energy Consumed,51.9151,J

[TABLE_3_ENERGY_CONSUMPTION_J]
Round,EnergyConsumed_J
50,1.023958
100.000000,2.047917
150.000000,3.036265
200.000000,4.024612
250.000000,5.019929
300.000000,6.015246
350.000000,7.044711
400.000000,8.074176
450.000000,9.116269
500.000000,10.158362
550.000000,11.104800
600.000000,12.051238
650.000000,12.971625
700.000000,13.892012
750.000000,14.959449
800.000000,16.026886
850.000000,17.090307
900.000000,18.153729
950.000000,19.293477
1000.000000,20.433225
1050.000000,21.327231
1100.000000,22.207287
1150.000000,23.076202
1200.000000,23.945118
1250.000000,24.767098
1300.000000,25.589079
1350.000000,26.504682
1400.000000,27.417000
1450.000000,28.344053
1500.000000,29.261850
1550.000000,30.182473
1600.000000,31.091860
1650.000000,31.929241
1700.000000,32.766621
1750.000000,33.678399
1800.000000,34.502727
1850.000000,35.241181
1900.000000,35.945280
1950.000000,36.721200
2000.000000,37.497120
2050.000000,38.192406
2100.000000,38.883147
2150.000000,39.639092
2200.000000,40.372821
2250.000000,41.049432
2300.000000,41.721874
2350.000000,42.396131
2400.000000,43.052969
2450.000000,43.668446
2500.000000,44.229951
2550.000000,44.759644
2600.000000,45.279478
2650.000000,45.779305
2700.000000,46.245619
2750.000000,46.727630
2800.000000,47.189822
2850.000000,47.623987
2900.000000,47.999747
2950.000000,48.341102
3000.000000,48.682458
3050.000000,49.023813
3100.000000,49.359144
3150.000000,49.678639
3200.000000,49.998134
3250.000000,50.317629
3300.000000,50.637124
3350.000000,50.956619
3400.000000,51.276114
3450.000000,51.595609
3500.000000,51.915104

[TABLE_4_NETWORK_LIFETIME]
Round,AliveNodes,DeadNodes,Time_s
50.000000,50,0,50.000000
100.000000,50,0,100.000000
150.000000,50,0,150.000000
200.000000,50,0,200.000000
250.000000,50,0,250.000000
300.000000,50,0,300.000000
350.000000,50,0,350.000000
400.000000,50,0,400.000000
450.000000,50,0,450.000000
500.000000,50,0,500.000000
550.000000,50,0,550.000000
600.000000,50,0,600.000000
650.000000,50,0,650.000000
700.000000,50,0,700.000000
750.000000,50,0,750.000000
800.000000,50,0,800.000000
850.000000,50,0,850.000000
900.000000,50,0,900.000000
950.000000,50,0,950.000000
1000.000000,50,0,1000.000000
1050.000000,49,1,1050.000000
1100.000000,49,1,1100.000000
1150.000000,49,1,1150.000000
1200.000000,49,1,1200.000000
1250.000000,49,1,1250.000000
1300.000000,49,1,1300.000000
1350.000000,48,2,1350.000000
1400.000000,48,2,1400.000000
1450.000000,47,3,1450.000000
1500.000000,47,3,1500.000000
1550.000000,47,3,1550.000000
1600.000000,46,4,1600.000000
1650.000000,46,4,1650.000000
1700.000000,46,4,1700.000000
1750.000000,46,4,1750.000000
1800.000000,44,6,1800.000000
1850.000000,43,7,1850.000000
1900.000000,42,8,1900.000000
1950.000000,42,8,1950.000000
2000.000000,42,8,2000.000000
2050.000000,41,9,2050.000000
2100.000000,41,9,2100.000000
2150.000000,41,9,2150.000000
2200.000000,40,10,2200.000000
2250.000000,38,12,2250.000000
2300.000000,38,12,2300.000000
2350.000000,38,12,2350.000000
2400.000000,37,13,2400.000000
2450.000000,35,15,2450.000000
2500.000000,33,17,2500.000000
2550.000000,32,18,2550.000000
2600.000000,32,18,2600.000000
2650.000000,31,19,2650.000000
2700.000000,30,20,2700.000000
2750.000000,29,21,2750.000000
2800.000000,29,21,2800.000000
2850.000000,27,23,2850.000000
2900.000000,25,25,2900.000000
2950.000000,25,25,2950.000000
3000.000000,25,25,3000.000000
3050.000000,25,25,3050.000000
3100.000000,24,26,3100.000000
3150.000000,24,26,3150.000000
3200.000000,24,26,3200.000000
3250.000000,24,26,3250.000000
3300.000000,24,26,3300.000000
3350.000000,24,26,3350.000000
3400.000000,24,26,3400.000000
3450.000000,24,26,3450.000000
3500.000000,24,26,3500.000000

[TABLE_5_PDR_PERCENT]
Round,PDR_RL_pct,PDR_NS3_pct
50.000000,100.00,0.00
100.00,100.00,0.00
150.00,100.00,0.00
200.00,100.00,0.00
250.00,100.00,0.00
300.00,100.00,0.00
350.00,100.00,0.00
400.00,100.00,0.00
450.00,100.00,0.00
500.00,100.00,0.00
550.00,100.00,0.00
600.00,100.00,0.00
650.00,100.00,0.00
700.00,100.00,0.00
750.00,100.00,0.00
800.00,100.00,0.00
850.00,100.00,0.00
900.00,100.00,0.00
950.00,100.00,0.00
1000.00,100.00,0.00
1050.00,99.88,0.00
1100.00,99.70,0.00
1150.00,99.71,0.00
1200.00,99.72,0.00
1250.00,99.74,0.00
1300.00,99.75,0.00
1350.00,99.75,0.00
1400.00,99.76,0.00
1450.00,99.76,0.00
1500.00,99.76,0.00
1550.00,99.77,0.00
1600.00,99.77,0.00
1650.00,99.78,0.00
1700.00,99.78,0.00
1750.00,99.79,0.00
1800.00,99.78,0.00
1850.00,99.78,0.00
1900.00,99.78,0.00
1950.00,99.79,0.00
2000.00,99.79,0.00
2050.00,99.79,0.00
2100.00,99.80,0.00
2150.00,99.80,0.00
2200.00,99.80,0.00
2250.00,99.75,0.00
2300.00,99.71,0.00
2350.00,99.71,0.00
2400.00,99.67,0.00
2450.00,99.65,0.00
2500.00,99.60,0.00
2550.00,99.60,0.00
2600.00,99.61,0.00
2650.00,99.61,0.00
2700.00,99.61,0.00
2750.00,99.61,0.00
2800.00,99.62,0.00
2850.00,99.61,0.00
2900.00,99.61,0.00
2950.00,99.61,0.00
3000.00,99.62,0.00
3050.00,99.62,0.00
3100.00,99.62,0.00
3150.00,99.62,0.00
3200.00,99.63,0.00
3250.00,99.63,0.00
3300.00,99.63,0.00
3350.00,99.64,0.00
3400.00,99.64,0.00
3450.00,99.64,0.00
3500.00,99.65,0.00

[TABLE_6_END_TO_END_DELAY_ms]
Round,Delay_ms
500.00,9.18
1000.00,9.18
1500.00,9.86
2000.00,9.86
2500.00,9.28
3000.00,9.28
3500.00,8.89
4000.00,8.89
4500.00,8.99
5000.00,8.99
5500.00,9.18
6000.00,9.18
6500.00,8.99
7000.00,8.99
7500.00,9.18
8000.00,9.18
8500.00,9.28
9000.00,9.28
9500.00,8.50
10000.00,8.50
10500.00,9.17
11000.00,9.17
11500.00,9.47
12000.00,9.47
12500.00,9.07
13000.00,9.07
13500.00,9.46
14000.00,9.46
14500.00,9.46
15000.00,9.46
15500.00,8.94
16000.00,8.93
16500.00,9.14
17000.00,9.14
17500.00,8.19
18000.00,8.13
18500.00,8.65
19000.00,8.63
19500.00,8.17
20000.00,8.17
20500.00,8.01
21000.00,8.01
21500.00,8.13
22000.00,8.09
22500.00,7.63
23000.00,7.63
23500.00,7.50
24000.00,7.31
24500.00,7.59
25000.00,7.17
25500.00,6.64
26000.00,6.64
26500.00,6.70
27000.00,6.60
27500.00,5.50
28000.00,5.50
28500.00,5.19
29000.00,4.83
29500.00,4.83
30000.00,4.83
30500.00,4.83
31000.00,4.83
31500.00,4.83
32000.00,4.83
32500.00,4.83
33000.00,4.83
33500.00,4.83
34000.00,4.83
34500.00,4.83
35000.00,4.83

[TABLE_7_ALIVE_NODES]
Round,AliveNodes
50.00,50
100.00,50
150.00,50
200.00,50
250.00,50
300.00,50
350.00,50
400.00,50
450.00,50
500.00,50
550.00,50
600.00,50
650.00,50
700.00,50
750.00,50
800.00,50
850.00,50
900.00,50
950.00,50
1000.00,50
1050.00,49
1100.00,49
1150.00,49
1200.00,49
1250.00,49
1300.00,49
1350.00,48
1400.00,48
1450.00,47
1500.00,47
1550.00,47
1600.00,46
1650.00,46
1700.00,46
1750.00,46
1800.00,44
1850.00,43
1900.00,42
1950.00,42
2000.00,42
2050.00,41
2100.00,41
2150.00,41
2200.00,40
2250.00,38
2300.00,38
2350.00,38
2400.00,37
2450.00,35
2500.00,33
2550.00,32
2600.00,32
2650.00,31
2700.00,30
2750.00,29
2800.00,29
2850.00,27
2900.00,25
2950.00,25
3000.00,25
3050.00,25
3100.00,24
3150.00,24
3200.00,24
3250.00,24
3300.00,24
3350.00,24
3400.00,24
3450.00,24
3500.00,24

[TABLE_8_DEAD_NODES]
Round,DeadNodes
50.00,0
100.00,0
150.00,0
200.00,0
250.00,0
300.00,0
350.00,0
400.00,0
450.00,0
500.00,0
550.00,0
600.00,0
650.00,0
700.00,0
750.00,0
800.00,0
850.00,0
900.00,0
950.00,0
1000.00,0
1050.00,1
1100.00,1
1150.00,1
1200.00,1
1250.00,1
1300.00,1
1350.00,2
1400.00,2
1450.00,3
1500.00,3
1550.00,3
1600.00,4
1650.00,4
1700.00,4
1750.00,4
1800.00,6
1850.00,7
1900.00,8
1950.00,8
2000.00,8
2050.00,9
2100.00,9
2150.00,9
2200.00,10
2250.00,12
2300.00,12
2350.00,12
2400.00,13
2450.00,15
2500.00,17
2550.00,18
2600.00,18
2650.00,19
2700.00,20
2750.00,21
2800.00,21
2850.00,23
2900.00,25
2950.00,25
3000.00,25
3050.00,25
3100.00,26
3150.00,26
3200.00,26
3250.00,26
3300.00,26
3350.00,26
3400.00,26
3450.00,26
3500.00,26

[TABLE_RL_METRICS]
Round,RL_Steps,Fed_Rounds
50.00,500,0
100.00,1000,0
150.00,1500,0
200.00,2000,0
250.00,2500,0
300.00,3000,0
350.00,3500,0
400.00,4000,0
450.00,4500,0
500.00,5000,0
550.00,5500,0
600.00,6000,0
650.00,6500,0
700.00,7000,0
750.00,7500,0
800.00,8000,0
850.00,8500,0
900.00,9000,0
950.00,9500,0
1000.00,10000,0
1050.00,10494,0
1100.00,10984,0
1150.00,11474,0
1200.00,11964,0
1250.00,12454,0
1300.00,12944,0
1350.00,13427,0
1400.00,13907,0
1450.00,14379,0
1500.00,14849,0
1550.00,15319,0
1600.00,15787,0
1650.00,16247,0
1700.00,16707,0
1750.00,17167,0
1800.00,17611,0
1850.00,18043,0
1900.00,18466,0
1950.00,18886,0
2000.00,19306,0
2050.00,19718,0
2100.00,20128,0
2150.00,20538,0
2200.00,20943,0
2250.00,21326,0
2300.00,21706,0
2350.00,22086,0
2400.00,22457,0
2450.00,22817,0
2500.00,23158,0
2550.00,23481,0
2600.00,23801,0
2650.00,24118,0
2700.00,24425,0
2750.00,24723,0
2800.00,25013,0
2850.00,25295,0
2900.00,25557,0
2950.00,25807,0
3000.00,26057,0
3050.00,26307,0
3100.00,26555,0
3150.00,26795,0
3200.00,27035,0
3250.00,27275,0
3300.00,27515,0
3350.00,27755,0
3400.00,27995,0
3450.00,28235,0
3500.00,28475,0
