# FDQN-TE+ Comparison Metrics (vs Article) - Énergie en Joules
# Tables: 3 (Energy), 4 (Lifetime), 5 (PDR), 6 (Delay), 7-8 (Alive/Dead Nodes)

[SUMMARY]
Metric,Value,Unit
FND (First Node Death),1437,s
HND (Half Node Death),2597,s
LND (90% Node Death),3342,s
Total Rounds,66,rounds
Average PDR RL,98.8977,%
PDR RL pre-FND (stable phase),99.3352,%
Average PDR NS-3,100,%
Average End-to-End Delay,17.6575,ms
Total Energy Consumed,356.71,J

[TABLE_3_ENERGY_CONSUMPTION_J]
Round,EnergyConsumed_J
50,6.330177
100.000000,12.660767
150.000000,19.014444
200.000000,25.379233
250.000000,31.832330
300.000000,38.279086
350.000000,44.969337
400.000000,51.638107
450.000000,58.389126
500.000000,65.154392
550.000000,72.712637
600.000000,80.267635
650.000000,87.230993
700.000000,94.181852
750.000000,101.710690
800.000000,109.235639
850.000000,117.017466
900.000000,124.812982
950.000000,132.829087
1000.000000,140.857676
1050.000000,149.091909
1100.000000,157.319498
1150.000000,165.216817
1200.000000,173.141518
1250.000000,180.783848
1300.000000,188.424697
1350.000000,196.034808
1400.000000,203.650422
1450.000000,210.969748
1500.000000,218.262886
1550.000000,225.585689
1600.000000,232.903283
1650.000000,239.606183
1700.000000,246.302379
1750.000000,252.858781
1800.000000,259.382349
1850.000000,265.722732
1900.000000,271.952253
1950.000000,277.872520
2000.000000,283.749903
2050.000000,289.433197
2100.000000,295.008578
2150.000000,300.629764
2200.000000,306.110287
2250.000000,311.299347
2300.000000,316.192667
2350.000000,320.909196
2400.000000,325.059008
2450.000000,329.185195
2500.000000,332.599337
2550.000000,336.240780
2600.000000,339.118394
2650.000000,341.848128
2700.000000,344.155327
2750.000000,346.253918
2800.000000,347.930944
2850.000000,349.433125
2900.000000,350.535019
2950.000000,351.673820
3000.000000,352.527817
3050.000000,353.367884
3100.000000,354.074213
3150.000000,354.740162
3200.000000,355.323894
3250.000000,355.900828
3300.000000,356.332136

[TABLE_4_NETWORK_LIFETIME]
Round,AliveNodes,DeadNodes,Time_s
50.000000,300,0,50.000000
100.000000,300,0,100.000000
150.000000,300,0,150.000000
200.000000,300,0,200.000000
250.000000,300,0,250.000000
300.000000,300,0,300.000000
350.000000,300,0,350.000000
400.000000,300,0,400.000000
450.000000,300,0,450.000000
500.000000,300,0,500.000000
550.000000,300,0,550.000000
600.000000,300,0,600.000000
650.000000,300,0,650.000000
700.000000,300,0,700.000000
750.000000,300,0,750.000000
800.000000,300,0,800.000000
850.000000,300,0,850.000000
900.000000,300,0,900.000000
950.000000,300,0,950.000000
1000.000000,300,0,1000.000000
1050.000000,300,0,1050.000000
1100.000000,300,0,1100.000000
1150.000000,300,0,1150.000000
1200.000000,300,0,1200.000000
1250.000000,300,0,1250.000000
1300.000000,300,0,1300.000000
1350.000000,300,0,1350.000000
1400.000000,300,0,1400.000000
1450.000000,299,1,1450.000000
1500.000000,298,2,1500.000000
1550.000000,298,2,1550.000000
1600.000000,297,3,1600.000000
1650.000000,296,4,1650.000000
1700.000000,296,4,1700.000000
1750.000000,296,4,1750.000000
1800.000000,293,7,1800.000000
1850.000000,288,12,1850.000000
1900.000000,282,18,1900.000000
1950.000000,278,22,1950.000000
2000.000000,275,25,2000.000000
2050.000000,269,31,2050.000000
2100.000000,262,38,2100.000000
2150.000000,255,45,2150.000000
2200.000000,247,53,2200.000000
2250.000000,243,57,2250.000000
2300.000000,227,73,2300.000000
2350.000000,218,82,2350.000000
2400.000000,203,97,2400.000000
2450.000000,190,110,2450.000000
2500.000000,178,122,2500.000000
2550.000000,169,131,2550.000000
2600.000000,149,151,2600.000000
2650.000000,135,165,2650.000000
2700.000000,119,181,2700.000000
2750.000000,107,193,2750.000000
2800.000000,97,203,2800.000000
2850.000000,83,217,2850.000000
2900.000000,71,229,2900.000000
2950.000000,65,235,2950.000000
3000.000000,59,241,3000.000000
3050.000000,56,244,3050.000000
3100.000000,52,248,3100.000000
3150.000000,50,250,3150.000000
3200.000000,45,255,3200.000000
3250.000000,39,261,3250.000000
3300.000000,35,265,3300.000000

[TABLE_5_PDR_PERCENT]
Round,PDR_RL_pct,PDR_NS3_pct
50.000000,100.00,100.00
100.00,100.00,100.00
150.00,99.92,100.00
200.00,99.90,100.00
250.00,99.80,100.00
300.00,99.73,100.00
350.00,99.70,100.00
400.00,99.67,100.00
450.00,99.58,100.00
500.00,99.51,100.00
550.00,99.44,100.00
600.00,99.40,100.00
650.00,99.36,100.00
700.00,99.33,100.00
750.00,99.34,100.00
800.00,99.34,100.00
850.00,99.29,100.00
900.00,99.24,100.00
950.00,99.26,100.00
1000.00,99.28,100.00
1050.00,99.29,100.00
1100.00,99.31,100.00
1150.00,99.29,100.00
1200.00,99.28,100.00
1250.00,99.29,100.00
1300.00,99.29,100.00
1350.00,99.31,100.00
1400.00,99.32,100.00
1450.00,99.34,100.00
1500.00,99.35,100.00
1550.00,99.35,100.00
1600.00,99.34,100.00
1650.00,99.34,100.00
1700.00,99.34,100.00
1750.00,99.34,100.00
1800.00,99.33,100.00
1850.00,99.34,100.00
1900.00,99.35,100.00
1950.00,99.35,100.00
2000.00,99.36,100.00
2050.00,99.36,100.00
2100.00,99.37,100.00
2150.00,99.36,100.00
2200.00,99.36,100.00
2250.00,99.35,100.00
2300.00,99.13,100.00
2350.00,99.11,100.00
2400.00,98.78,100.00
2450.00,98.77,100.00
2500.00,98.47,100.00
2550.00,98.46,100.00
2600.00,98.21,100.00
2650.00,98.18,100.00
2700.00,97.93,100.00
2750.00,97.82,100.00
2800.00,97.59,100.00
2850.00,97.48,100.00
2900.00,97.26,100.00
2950.00,97.22,100.00
3000.00,97.07,100.00
3050.00,97.05,100.00
3100.00,96.94,100.00
3150.00,96.93,100.00
3200.00,96.85,100.00
3250.00,96.83,100.00
3300.00,96.77,100.00

[TABLE_6_END_TO_END_DELAY_ms]
Round,Delay_ms
500.00,17.57
1000.00,17.57
1500.00,18.46
2000.00,18.46
2500.00,18.96
3000.00,18.96
3500.00,18.70
4000.00,18.70
4500.00,19.26
5000.00,19.26
5500.00,21.08
6000.00,21.08
6500.00,19.75
7000.00,19.75
7500.00,19.96
8000.00,19.96
8500.00,20.75
9000.00,20.75
9500.00,19.78
10000.00,19.78
10500.00,20.83
11000.00,20.83
11500.00,20.60
12000.00,20.60
12500.00,19.81
13000.00,19.81
13500.00,20.07
14000.00,20.07
14500.00,19.41
15000.00,19.38
15500.00,19.52
16000.00,19.17
16500.00,18.81
17000.00,18.81
17500.00,18.87
18000.00,18.65
18500.00,18.35
19000.00,18.18
19500.00,18.27
20000.00,18.20
20500.00,17.84
21000.00,17.63
21500.00,17.62
22000.00,17.33
22500.00,17.58
23000.00,15.50
23500.00,16.67
24000.00,14.97
24500.00,16.94
25000.00,15.36
25500.00,16.15
26000.00,14.92
26500.00,15.36
27000.00,13.44
27500.00,15.26
28000.00,14.00
28500.00,13.45
29000.00,12.66
29500.00,13.53
30000.00,12.12
30500.00,15.88
31000.00,12.64
31500.00,14.69
32000.00,12.13
32500.00,13.38
33000.00,11.60

[TABLE_7_ALIVE_NODES]
Round,AliveNodes
50.00,300
100.00,300
150.00,300
200.00,300
250.00,300
300.00,300
350.00,300
400.00,300
450.00,300
500.00,300
550.00,300
600.00,300
650.00,300
700.00,300
750.00,300
800.00,300
850.00,300
900.00,300
950.00,300
1000.00,300
1050.00,300
1100.00,300
1150.00,300
1200.00,300
1250.00,300
1300.00,300
1350.00,300
1400.00,300
1450.00,299
1500.00,298
1550.00,298
1600.00,297
1650.00,296
1700.00,296
1750.00,296
1800.00,293
1850.00,288
1900.00,282
1950.00,278
2000.00,275
2050.00,269
2100.00,262
2150.00,255
2200.00,247
2250.00,243
2300.00,227
2350.00,218
2400.00,203
2450.00,190
2500.00,178
2550.00,169
2600.00,149
2650.00,135
2700.00,119
2750.00,107
2800.00,97
2850.00,83
2900.00,71
2950.00,65
3000.00,59
3050.00,56
3100.00,52
3150.00,50
3200.00,45
3250.00,39
3300.00,35

[TABLE_8_DEAD_NODES]
Round,DeadNodes
50.00,0
100.00,0
150.00,0
200.00,0
250.00,0
300.00,0
350.00,0
400.00,0
450.00,0
500.00,0
550.00,0
600.00,0
650.00,0
700.00,0
750.00,0
800.00,0
850.00,0
900.00,0
950.00,0
1000.00,0
1050.00,0
1100.00,0
1150.00,0
1200.00,0
1250.00,0
1300.00,0
1350.00,0
1400.00,0
1450.00,1
1500.00,2
1550.00,2
1600.00,3
1650.00,4
1700.00,4
1750.00,4
1800.00,7
1850.00,12
1900.00,18
1950.00,22
2000.00,25
2050.00,31
2100.00,38
2150.00,45
2200.00,53
2250.00,57
2300.00,73
2350.00,82
2400.00,97
2450.00,110
2500.00,122
2550.00,131
2600.00,151
2650.00,165
2700.00,181
2750.00,193
2800.00,203
2850.00,217
2900.00,229
2950.00,235
3000.00,241
3050.00,244
3100.00,248
3150.00,250
3200.00,255
3250.00,261
3300.00,265

[TABLE_RL_METRICS]
Round,RL_Steps,Fed_Rounds
50.00,3000,60
100.00,6000,120
150.00,9000,180
200.00,12000,240
250.00,15000,300
300.00,18000,360
350.00,21000,420
400.00,24000,480
450.00,27000,540
500.00,30000,600
550.00,33000,660
600.00,36000,720
650.00,39000,780
700.00,42000,840
750.00,45000,900
800.00,48000,960
850.00,51000,1020
900.00,54000,1080
950.00,57000,1140
1000.00,60000,1200
1050.00,63000,1260
1100.00,66000,1320
1150.00,69000,1380
1200.00,72000,1440
1250.00,75000,1500
1300.00,78000,1560
1350.00,81000,1620
1400.00,84000,1680
1450.00,86998,1739
1500.00,89981,1799
1550.00,92961,1859
1600.00,95941,1918
1650.00,98911,1978
1700.00,101871,2037
1750.00,104831,2096
1800.00,107782,2155
1850.00,110682,2213
1900.00,113529,2270
1950.00,116322,2326
2000.00,119088,2381
2050.00,121798,2435
2100.00,124454,2489
2150.00,127039,2540
2200.00,129556,2591
2250.00,132002,2640
2300.00,134372,2687
2350.00,136605,2732
2400.00,138699,2773
2450.00,140676,2813
2500.00,142487,2849
2550.00,144233,2884
2600.00,145798,2915
2650.00,147223,2944
2700.00,148486,2969
2750.00,149587,2991
2800.00,150568,3011
2850.00,151434,3028
2900.00,152134,3042
2950.00,152752,3055
3000.00,153290,3065
3050.00,153779,3075
3100.00,154219,3084
3150.00,154640,3092
3200.00,155005,3100
3250.00,155337,3106
3300.00,155613,3112
