# FDQN-TE+ Comparison Metrics (vs Article) - Énergie en Joules
# Tables: 3 (Energy), 4 (Lifetime), 5 (PDR), 6 (Delay), 7-8 (Alive/Dead Nodes)

[SUMMARY]
Metric,Value,Unit
FND (First Node Death),292,s
HND (Half Node Death),2222,s
LND (90% Node Death),0,s
Total Rounds,70,rounds
Average PDR RL,94.6319,%
PDR RL pre-FND (stable phase),98.6655,%
Average PDR NS-3,100,%
Average End-to-End Delay,16.3175,ms
Total Energy Consumed,353.629,J

[TABLE_3_ENERGY_CONSUMPTION_J]
Round,EnergyConsumed_J
50,7.900660
100.000000,15.804927
150.000000,24.592135
200.000000,33.387013
250.000000,42.280379
300.000000,51.103093
350.000000,59.155792
400.000000,67.114329
450.000000,75.936740
500.000000,84.660102
550.000000,91.980308
600.000000,98.993899
650.000000,106.734985
700.000000,114.347266
750.000000,122.288949
800.000000,130.144870
850.000000,138.601039
900.000000,146.769528
950.000000,153.514895
1000.000000,160.069430
1050.000000,167.551592
1100.000000,174.754253
1150.000000,181.442560
1200.000000,187.862831
1250.000000,195.868686
1300.000000,203.321360
1350.000000,209.960234
1400.000000,216.216550
1450.000000,222.428220
1500.000000,228.355062
1550.000000,234.898075
1600.000000,240.786184
1650.000000,247.299507
1700.000000,253.403947
1750.000000,259.766811
1800.000000,265.303463
1850.000000,271.800894
1900.000000,277.193718
1950.000000,282.550288
2000.000000,287.279666
2050.000000,291.875452
2100.000000,296.275557
2150.000000,300.818608
2200.000000,304.320429
2250.000000,309.000155
2300.000000,312.601827
2350.000000,316.919928
2400.000000,320.569155
2450.000000,323.618149
2500.000000,326.255534
2550.000000,328.844410
2600.000000,331.233890
2650.000000,333.846163
2700.000000,335.967603
2750.000000,338.401292
2800.000000,340.299056
2850.000000,342.301591
2900.000000,343.948848
2950.000000,345.293317
3000.000000,346.405236
3050.000000,347.304589
3100.000000,348.054052
3150.000000,349.027767
3200.000000,349.982834
3250.000000,350.809812
3300.000000,351.447078
3350.000000,352.083246
3400.000000,352.672813
3450.000000,353.202081
3500.000000,353.629004

[TABLE_4_NETWORK_LIFETIME]
Round,AliveNodes,DeadNodes,Time_s
50.000000,300,0,50.000000
100.000000,300,0,100.000000
150.000000,300,0,150.000000
200.000000,300,0,200.000000
250.000000,300,0,250.000000
300.000000,298,2,300.000000
350.000000,296,4,350.000000
400.000000,296,4,400.000000
450.000000,296,4,450.000000
500.000000,294,6,500.000000
550.000000,293,7,550.000000
600.000000,291,9,600.000000
650.000000,291,9,650.000000
700.000000,290,10,700.000000
750.000000,289,11,750.000000
800.000000,287,13,800.000000
850.000000,286,14,850.000000
900.000000,281,19,900.000000
950.000000,279,21,950.000000
1000.000000,277,23,1000.000000
1050.000000,275,25,1050.000000
1100.000000,273,27,1100.000000
1150.000000,271,29,1150.000000
1200.000000,269,31,1200.000000
1250.000000,267,33,1250.000000
1300.000000,260,40,1300.000000
1350.000000,253,47,1350.000000
1400.000000,248,52,1400.000000
1450.000000,244,56,1450.000000
1500.000000,241,59,1500.000000
1550.000000,235,65,1550.000000
1600.000000,231,69,1600.000000
1650.000000,223,77,1650.000000
1700.000000,220,80,1700.000000
1750.000000,216,84,1750.000000
1800.000000,207,93,1800.000000
1850.000000,198,102,1850.000000
1900.000000,189,111,1900.000000
1950.000000,183,117,1950.000000
2000.000000,177,123,2000.000000
2050.000000,173,127,2050.000000
2100.000000,172,128,2100.000000
2150.000000,163,137,2150.000000
2200.000000,155,145,2200.000000
2250.000000,148,152,2250.000000
2300.000000,137,163,2300.000000
2350.000000,133,167,2350.000000
2400.000000,123,177,2400.000000
2450.000000,116,184,2450.000000
2500.000000,113,187,2500.000000
2550.000000,105,195,2550.000000
2600.000000,100,200,2600.000000
2650.000000,98,202,2650.000000
2700.000000,90,210,2700.000000
2750.000000,84,216,2750.000000
2800.000000,78,222,2800.000000
2850.000000,71,229,2850.000000
2900.000000,65,235,2900.000000
2950.000000,61,239,2950.000000
3000.000000,59,241,3000.000000
3050.000000,54,246,3050.000000
3100.000000,52,248,3100.000000
3150.000000,51,249,3150.000000
3200.000000,50,250,3200.000000
3250.000000,47,253,3250.000000
3300.000000,43,257,3300.000000
3350.000000,43,257,3350.000000
3400.000000,40,260,3400.000000
3450.000000,38,262,3450.000000
3500.000000,35,265,3500.000000

[TABLE_5_PDR_PERCENT]
Round,PDR_RL_pct,PDR_NS3_pct
50.000000,99.17,100.00
100.00,99.18,100.00
150.00,98.91,100.00
200.00,98.78,100.00
250.00,98.69,100.00
300.00,98.40,100.00
350.00,98.26,100.00
400.00,97.97,100.00
450.00,98.13,100.00
500.00,98.17,100.00
550.00,98.27,100.00
600.00,98.18,100.00
650.00,98.23,100.00
700.00,98.21,100.00
750.00,98.23,100.00
800.00,98.02,100.00
850.00,98.10,100.00
900.00,98.09,100.00
950.00,97.82,100.00
1000.00,97.25,100.00
1050.00,97.25,100.00
1100.00,96.89,100.00
1150.00,96.80,100.00
1200.00,96.56,100.00
1250.00,96.61,100.00
1300.00,96.32,100.00
1350.00,96.22,100.00
1400.00,95.52,100.00
1450.00,95.43,100.00
1500.00,95.10,100.00
1550.00,95.02,100.00
1600.00,94.68,100.00
1650.00,94.57,100.00
1700.00,94.32,100.00
1750.00,94.17,100.00
1800.00,93.68,100.00
1850.00,93.56,100.00
1900.00,93.21,100.00
1950.00,93.20,100.00
2000.00,92.91,100.00
2050.00,92.97,100.00
2100.00,92.84,100.00
2150.00,92.85,100.00
2200.00,92.42,100.00
2250.00,92.31,100.00
2300.00,92.09,100.00
2350.00,92.14,100.00
2400.00,92.01,100.00
2450.00,91.94,100.00
2500.00,91.78,100.00
2550.00,91.77,100.00
2600.00,91.70,100.00
2650.00,91.73,100.00
2700.00,91.65,100.00
2750.00,91.65,100.00
2800.00,91.59,100.00
2850.00,91.62,100.00
2900.00,91.59,100.00
2950.00,91.61,100.00
3000.00,91.61,100.00
3050.00,91.60,100.00
3100.00,91.55,100.00
3150.00,91.58,100.00
3200.00,91.60,100.00
3250.00,91.63,100.00
3300.00,91.64,100.00
3350.00,91.66,100.00
3400.00,91.67,100.00
3450.00,91.69,100.00
3500.00,91.69,100.00

[TABLE_6_END_TO_END_DELAY_ms]
Round,Delay_ms
500.00,19.10
1000.00,19.10
1500.00,19.20
2000.00,19.20
2500.00,19.67
3000.00,19.08
3500.00,20.00
4000.00,20.00
4500.00,18.84
5000.00,18.60
5500.00,19.82
6000.00,19.68
6500.00,19.11
7000.00,19.09
7500.00,20.15
8000.00,20.15
8500.00,19.09
9000.00,18.93
9500.00,20.23
10000.00,19.62
10500.00,18.55
11000.00,18.34
11500.00,19.11
12000.00,18.84
12500.00,18.69
13000.00,18.01
13500.00,19.16
14000.00,17.85
14500.00,18.28
15000.00,17.60
15500.00,18.28
16000.00,17.95
16500.00,18.05
17000.00,17.44
17500.00,18.41
18000.00,16.67
18500.00,17.08
19000.00,16.59
19500.00,16.71
20000.00,15.48
20500.00,16.81
21000.00,16.80
21500.00,16.10
22000.00,14.40
22500.00,15.83
23000.00,14.85
23500.00,14.68
24000.00,13.99
24500.00,14.75
25000.00,14.54
25500.00,14.17
26000.00,14.01
26500.00,14.55
27000.00,13.74
27500.00,13.17
28000.00,12.70
28500.00,12.32
29000.00,11.97
29500.00,12.04
30000.00,11.96
30500.00,11.90
31000.00,11.43
31500.00,12.22
32000.00,12.18
32500.00,11.00
33000.00,11.01
33500.00,11.01
34000.00,10.87
34500.00,10.68
35000.00,10.77

[TABLE_7_ALIVE_NODES]
Round,AliveNodes
50.00,300
100.00,300
150.00,300
200.00,300
250.00,300
300.00,298
350.00,296
400.00,296
450.00,296
500.00,294
550.00,293
600.00,291
650.00,291
700.00,290
750.00,289
800.00,287
850.00,286
900.00,281
950.00,279
1000.00,277
1050.00,275
1100.00,273
1150.00,271
1200.00,269
1250.00,267
1300.00,260
1350.00,253
1400.00,248
1450.00,244
1500.00,241
1550.00,235
1600.00,231
1650.00,223
1700.00,220
1750.00,216
1800.00,207
1850.00,198
1900.00,189
1950.00,183
2000.00,177
2050.00,173
2100.00,172
2150.00,163
2200.00,155
2250.00,148
2300.00,137
2350.00,133
2400.00,123
2450.00,116
2500.00,113
2550.00,105
2600.00,100
2650.00,98
2700.00,90
2750.00,84
2800.00,78
2850.00,71
2900.00,65
2950.00,61
3000.00,59
3050.00,54
3100.00,52
3150.00,51
3200.00,50
3250.00,47
3300.00,43
3350.00,43
3400.00,40
3450.00,38
3500.00,35

[TABLE_8_DEAD_NODES]
Round,DeadNodes
50.00,0
100.00,0
150.00,0
200.00,0
250.00,0
300.00,2
350.00,4
400.00,4
450.00,4
500.00,6
550.00,7
600.00,9
650.00,9
700.00,10
750.00,11
800.00,13
850.00,14
900.00,19
950.00,21
1000.00,23
1050.00,25
1100.00,27
1150.00,29
1200.00,31
1250.00,33
1300.00,40
1350.00,47
1400.00,52
1450.00,56
1500.00,59
1550.00,65
1600.00,69
1650.00,77
1700.00,80
1750.00,84
1800.00,93
1850.00,102
1900.00,111
1950.00,117
2000.00,123
2050.00,127
2100.00,128
2150.00,137
2200.00,145
2250.00,152
2300.00,163
2350.00,167
2400.00,177
2450.00,184
2500.00,187
2550.00,195
2600.00,200
2650.00,202
2700.00,210
2750.00,216
2800.00,222
2850.00,229
2900.00,235
2950.00,239
3000.00,241
3050.00,246
3100.00,248
3150.00,249
3200.00,250
3250.00,253
3300.00,257
3350.00,257
3400.00,260
3450.00,262
3500.00,265

[TABLE_RL_METRICS]
Round,RL_Steps,Fed_Rounds
50.00,3000,0
100.00,6000,0
150.00,9000,0
200.00,12000,0
250.00,15000,0
300.00,17998,0
350.00,20968,0
400.00,23928,0
450.00,26888,0
500.00,29845,0
550.00,32785,0
600.00,35710,0
650.00,38620,0
700.00,41523,0
750.00,44422,0
800.00,47302,0
850.00,50167,0
900.00,53015,0
950.00,55814,0
1000.00,58600,0
1050.00,61362,0
1100.00,64098,0
1150.00,66815,0
1200.00,69514,0
1250.00,72188,0
1300.00,74829,0
1350.00,77402,0
1400.00,79925,0
1450.00,82393,0
1500.00,84824,0
1550.00,87218,0
1600.00,89546,0
1650.00,91814,0
1700.00,94033,0
1750.00,96215,0
1800.00,98336,0
1850.00,100357,0
1900.00,102283,0
1950.00,104152,0
2000.00,105963,0
2050.00,107722,0
2100.00,109447,0
2150.00,111132,0
2200.00,112706,0
2250.00,114202,0
2300.00,115618,0
2350.00,116965,0
2400.00,118238,0
2450.00,119418,0
2500.00,120548,0
2550.00,121611,0
2600.00,122603,0
2650.00,123564,0
2700.00,124464,0
2750.00,125277,0
2800.00,126035,0
2850.00,126743,0
2900.00,127371,0
2950.00,127918,0
3000.00,128432,0
3050.00,128913,0
3100.00,129349,0
3150.00,129776,0
3200.00,130191,0
3250.00,130591,0
3300.00,130941,0
3350.00,131271,0
3400.00,131584,0
3450.00,131874,0
3500.00,132137,0
