# FDQN-TE+ Comparison Metrics (vs Article) - Énergie en Joules
# Tables: 3 (Energy), 4 (Lifetime), 5 (PDR), 6 (Delay), 7-8 (Alive/Dead Nodes)

[SUMMARY]
Metric,Value,Unit
FND (First Node Death),2342,s
HND (Half Node Death),3117,s
LND (90% Node Death),0,s
Total Rounds,70,rounds
Average PDR RL,99.0576,%
PDR RL pre-FND (stable phase),99.323,%
Average PDR NS-3,99.9954,%
Average End-to-End Delay,15.9569,ms
Total Energy Consumed,236.404,J

[TABLE_3_ENERGY_CONSUMPTION_J]
Round,EnergyConsumed_J
50,3.757717
100.000000,7.513708
150.000000,11.171804
200.000000,14.834696
250.000000,18.559462
300.000000,22.273849
350.000000,26.033409
400.000000,29.688434
450.000000,33.434273
500.000000,37.076812
550.000000,40.939084
600.000000,44.747323
650.000000,48.806436
700.000000,52.625770
750.000000,57.046113
800.000000,61.027097
850.000000,65.291897
900.000000,69.454105
950.000000,73.475135
1000.000000,77.245517
1050.000000,81.410157
1100.000000,85.334372
1150.000000,89.383809
1200.000000,93.275688
1250.000000,97.262452
1300.000000,100.989113
1350.000000,104.965332
1400.000000,108.662844
1450.000000,112.598283
1500.000000,116.444476
1550.000000,120.259520
1600.000000,124.128043
1650.000000,128.097865
1700.000000,131.873159
1750.000000,135.778237
1800.000000,139.614942
1850.000000,143.436621
1900.000000,147.101712
1950.000000,150.975795
2000.000000,154.999568
2050.000000,158.855087
2100.000000,162.676855
2150.000000,166.505175
2200.000000,170.228580
2250.000000,174.302519
2300.000000,178.156631
2350.000000,181.974355
2400.000000,185.835216
2450.000000,189.731215
2500.000000,193.473420
2550.000000,197.280156
2600.000000,201.090793
2650.000000,204.639500
2700.000000,208.102324
2750.000000,211.429947
2800.000000,214.501687
2850.000000,217.760028
2900.000000,220.565515
2950.000000,223.023899
3000.000000,225.029272
3050.000000,226.826121
3100.000000,228.511511
3150.000000,230.076664
3200.000000,231.444770
3250.000000,232.601413
3300.000000,233.547871
3350.000000,234.424972
3400.000000,235.131070
3450.000000,235.844124
3500.000000,236.403864

[TABLE_4_NETWORK_LIFETIME]
Round,AliveNodes,DeadNodes,Time_s
50.000000,200,0,50.000000
100.000000,200,0,100.000000
150.000000,200,0,150.000000
200.000000,200,0,200.000000
250.000000,200,0,250.000000
300.000000,200,0,300.000000
350.000000,200,0,350.000000
400.000000,200,0,400.000000
450.000000,200,0,450.000000
500.000000,200,0,500.000000
550.000000,200,0,550.000000
600.000000,200,0,600.000000
650.000000,200,0,650.000000
700.000000,200,0,700.000000
750.000000,200,0,750.000000
800.000000,200,0,800.000000
850.000000,200,0,850.000000
900.000000,200,0,900.000000
950.000000,200,0,950.000000
1000.000000,200,0,1000.000000
1050.000000,200,0,1050.000000
1100.000000,200,0,1100.000000
1150.000000,200,0,1150.000000
1200.000000,200,0,1200.000000
1250.000000,200,0,1250.000000
1300.000000,200,0,1300.000000
1350.000000,200,0,1350.000000
1400.000000,200,0,1400.000000
1450.000000,200,0,1450.000000
1500.000000,200,0,1500.000000
1550.000000,200,0,1550.000000
1600.000000,200,0,1600.000000
1650.000000,200,0,1650.000000
1700.000000,200,0,1700.000000
1750.000000,200,0,1750.000000
1800.000000,200,0,1800.000000
1850.000000,200,0,1850.000000
1900.000000,200,0,1900.000000
1950.000000,200,0,1950.000000
2000.000000,200,0,2000.000000
2050.000000,200,0,2050.000000
2100.000000,200,0,2100.000000
2150.000000,200,0,2150.000000
2200.000000,200,0,2200.000000
2250.000000,200,0,2250.000000
2300.000000,200,0,2300.000000
2350.000000,199,1,2350.000000
2400.000000,199,1,2400.000000
2450.000000,199,1,2450.000000
2500.000000,198,2,2500.000000
2550.000000,194,6,2550.000000
2600.000000,191,9,2600.000000
2650.000000,188,12,2650.000000
2700.000000,183,17,2700.000000
2750.000000,179,21,2750.000000
2800.000000,169,31,2800.000000
2850.000000,163,37,2850.000000
2900.000000,148,52,2900.000000
2950.000000,133,67,2950.000000
3000.000000,119,81,3000.000000
3050.000000,113,87,3050.000000
3100.000000,106,94,3100.000000
3150.000000,93,107,3150.000000
3200.000000,86,114,3200.000000
3250.000000,73,127,3250.000000
3300.000000,67,133,3300.000000
3350.000000,58,142,3350.000000
3400.000000,55,145,3400.000000
3450.000000,50,150,3450.000000
3500.000000,43,157,3500.000000

[TABLE_5_PDR_PERCENT]
Round,PDR_RL_pct,PDR_NS3_pct
50.000000,100.00,100.00
100.00,100.00,100.00
150.00,100.00,100.00
200.00,100.00,100.00
250.00,99.93,100.00
300.00,99.89,100.00
350.00,99.72,100.00
400.00,99.67,100.00
450.00,99.62,100.00
500.00,99.58,99.95
550.00,99.50,99.95
600.00,99.43,99.95
650.00,99.39,99.95
700.00,99.34,99.95
750.00,99.30,100.00
800.00,99.28,100.00
850.00,99.32,100.00
900.00,99.30,100.00
950.00,99.29,100.00
1000.00,99.31,100.00
1050.00,99.28,100.00
1100.00,99.25,100.00
1150.00,99.23,100.00
1200.00,99.20,100.00
1250.00,99.21,100.00
1300.00,99.22,100.00
1350.00,99.23,100.00
1400.00,99.21,100.00
1450.00,99.23,100.00
1500.00,99.23,100.00
1550.00,99.24,100.00
1600.00,99.24,100.00
1650.00,99.26,100.00
1700.00,99.25,100.00
1750.00,99.26,100.00
1800.00,99.25,100.00
1850.00,99.26,100.00
1900.00,99.26,100.00
1950.00,99.28,100.00
2000.00,99.28,100.00
2050.00,99.30,100.00
2100.00,99.31,100.00
2150.00,99.31,100.00
2200.00,99.33,100.00
2250.00,99.32,100.00
2300.00,99.30,100.00
2350.00,99.31,100.00
2400.00,99.31,100.00
2450.00,99.32,100.00
2500.00,99.27,100.00
2550.00,99.28,100.00
2600.00,99.25,100.00
2650.00,99.26,100.00
2700.00,99.09,100.00
2750.00,99.09,100.00
2800.00,98.89,100.00
2850.00,98.88,100.00
2900.00,98.44,100.00
2950.00,98.41,100.00
3000.00,98.10,100.00
3050.00,98.09,100.00
3100.00,97.94,100.00
3150.00,97.89,100.00
3200.00,97.73,100.00
3250.00,97.65,100.00
3300.00,97.48,100.00
3350.00,97.33,100.00
3400.00,97.17,100.00
3450.00,97.15,100.00
3500.00,97.06,99.93

[TABLE_6_END_TO_END_DELAY_ms]
Round,Delay_ms
500.00,15.05
1000.00,15.05
1500.00,14.88
2000.00,14.88
2500.00,16.02
3000.00,16.02
3500.00,16.69
4000.00,16.69
4500.00,17.30
5000.00,17.15
5500.00,16.72
6000.00,16.72
6500.00,17.64
7000.00,17.49
7500.00,18.41
8000.00,18.22
8500.00,18.02
9000.00,18.07
9500.00,17.01
10000.00,16.82
10500.00,16.86
11000.00,16.67
11500.00,17.15
12000.00,17.06
12500.00,16.62
13000.00,16.43
13500.00,17.08
14000.00,16.89
14500.00,17.03
15000.00,16.89
15500.00,16.77
16000.00,16.67
16500.00,17.11
17000.00,16.72
17500.00,16.53
18000.00,16.43
18500.00,17.06
19000.00,16.86
19500.00,16.38
20000.00,16.43
20500.00,16.77
21000.00,16.67
21500.00,16.31
22000.00,16.31
22500.00,17.40
23000.00,17.11
23500.00,15.83
24000.00,15.83
24500.00,16.90
25000.00,16.47
25500.00,16.96
26000.00,16.52
26500.00,16.58
27000.00,15.45
27500.00,15.58
28000.00,14.70
28500.00,16.45
29000.00,13.88
29500.00,14.35
30000.00,13.12
30500.00,14.45
31000.00,13.95
31500.00,13.77
32000.00,13.77
32500.00,11.45
33000.00,10.82
33500.00,12.00
34000.00,11.77
34500.00,13.34
35000.00,12.02

[TABLE_7_ALIVE_NODES]
Round,AliveNodes
50.00,200
100.00,200
150.00,200
200.00,200
250.00,200
300.00,200
350.00,200
400.00,200
450.00,200
500.00,200
550.00,200
600.00,200
650.00,200
700.00,200
750.00,200
800.00,200
850.00,200
900.00,200
950.00,200
1000.00,200
1050.00,200
1100.00,200
1150.00,200
1200.00,200
1250.00,200
1300.00,200
1350.00,200
1400.00,200
1450.00,200
1500.00,200
1550.00,200
1600.00,200
1650.00,200
1700.00,200
1750.00,200
1800.00,200
1850.00,200
1900.00,200
1950.00,200
2000.00,200
2050.00,200
2100.00,200
2150.00,200
2200.00,200
2250.00,200
2300.00,200
2350.00,199
2400.00,199
2450.00,199
2500.00,198
2550.00,194
2600.00,191
2650.00,188
2700.00,183
2750.00,179
2800.00,169
2850.00,163
2900.00,148
2950.00,133
3000.00,119
3050.00,113
3100.00,106
3150.00,93
3200.00,86
3250.00,73
3300.00,67
3350.00,58
3400.00,55
3450.00,50
3500.00,43

[TABLE_8_DEAD_NODES]
Round,DeadNodes
50.00,0
100.00,0
150.00,0
200.00,0
250.00,0
300.00,0
350.00,0
400.00,0
450.00,0
500.00,0
550.00,0
600.00,0
650.00,0
700.00,0
750.00,0
800.00,0
850.00,0
900.00,0
950.00,0
1000.00,0
1050.00,0
1100.00,0
1150.00,0
1200.00,0
1250.00,0
1300.00,0
1350.00,0
1400.00,0
1450.00,0
1500.00,0
1550.00,0
1600.00,0
1650.00,0
1700.00,0
1750.00,0
1800.00,0
1850.00,0
1900.00,0
1950.00,0
2000.00,0
2050.00,0
2100.00,0
2150.00,0
2200.00,0
2250.00,0
2300.00,0
2350.00,1
2400.00,1
2450.00,1
2500.00,2
2550.00,6
2600.00,9
2650.00,12
2700.00,17
2750.00,21
2800.00,31
2850.00,37
2900.00,52
2950.00,67
3000.00,81
3050.00,87
3100.00,94
3150.00,107
3200.00,114
3250.00,127
3300.00,133
3350.00,142
3400.00,145
3450.00,150
3500.00,157

[TABLE_RL_METRICS]
Round,RL_Steps,Fed_Rounds
50.00,2000,40
100.00,4000,80
150.00,6000,120
200.00,8000,160
250.00,10000,200
300.00,12000,240
350.00,14000,280
400.00,16000,320
450.00,18000,360
500.00,20000,400
550.00,22000,440
600.00,24000,480
650.00,26000,520
700.00,28000,560
750.00,30000,600
800.00,32000,640
850.00,34000,680
900.00,36000,720
950.00,38000,760
1000.00,40000,800
1050.00,42000,840
1100.00,44000,880
1150.00,46000,920
1200.00,48000,960
1250.00,50000,1000
1300.00,52000,1040
1350.00,54000,1080
1400.00,56000,1120
1450.00,58000,1160
1500.00,60000,1200
1550.00,62000,1240
1600.00,64000,1280
1650.00,66000,1320
1700.00,68000,1360
1750.00,70000,1400
1800.00,72000,1440
1850.00,74000,1480
1900.00,76000,1520
1950.00,78000,1560
2000.00,80000,1600
2050.00,82000,1640
2100.00,84000,1680
2150.00,86000,1720
2200.00,88000,1760
2250.00,90000,1800
2300.00,92000,1840
2350.00,93999,1879
2400.00,95989,1919
2450.00,97979,1959
2500.00,99963,1999
2550.00,101917,2038
2600.00,103852,2077
2650.00,105756,2115
2700.00,107618,2152
2750.00,109430,2188
2800.00,111159,2223
2850.00,112831,2256
2900.00,114390,2287
2950.00,115804,2316
3000.00,117043,2340
3050.00,118194,2363
3100.00,119270,2385
3150.00,120243,2404
3200.00,121117,2422
3250.00,121877,2437
3300.00,122543,2450
3350.00,123126,2462
3400.00,123628,2472
3450.00,124090,2481
3500.00,124476,2489
